CpuMaxMemory,EpLenMean,EpRewMean,GpuMaxMemory,IPS_total,Iter,Misc/FrameRewMean,Misc/InteractCount,Misc/TimeElapsed,Opt/approxkl,Opt/clipfrac,Opt/entropy,Opt/loss_pi,Opt/loss_vf,Opt/negent,Opt/pg,Opt/pi_kl,VFStats/AdvMean,VFStats/AdvStd,VFStats/EV,VFStats/VpredMean,VFStats/VpredStd,VFStats/VtargMean,VFStats/VtargStd,del_time,wait_optimization,scaled/pol_distance,scaled/vf_aux,scaled/vf_true,unscaled/pol_distance,unscaled/vf_aux,unscaled/vf_true,EvalEpMean
3815908000.0,81.54761904761905,-1.7380952835083008,12268077568.0,1142.1366044339304,0.0,-0.013776077888906002,4096.0,3.586261034011841,5.30825383648903e-15,0.0,2.707622528076172,-0.027076220139861107,0.21695661544799805,-0.027076223865151405,3.725290298461914e-09,0.0,-0.2248862236738205,0.6192196607589722,0.0007829087047808159,0.06627170741558075,0.019654927775263786,-0.15861451625823975,0.619462251663208,3.586261034011841,0.5319013595581055,,,,,,,
4015768000.0,77.9375,-2.1041667461395264,12485313536.0,1175.825606897974,1.0,-0.014544779434800148,8192.0,7.069770812988281,7.008282842946301e-15,0.0,2.70185923576355,-0.02701859176158905,0.22958022356033325,-0.02701859176158905,0.0,0.0,-0.1971571445465088,0.6483765840530396,0.01273189796573826,-0.13273751735687256,0.03174414113163948,-0.32989466190338135,0.6525439023971558,3.4835097789764404,0.51419997215271,,,,,,,
4213504000.0,76.99,-2.2799999713897705,12485313536.0,1174.4823903892973,2.0,-0.012806065380573273,12288.0,10.557264566421509,7.08461067588928e-15,0.0,2.696941614151001,-0.02696942910552025,0.15546326339244843,-0.026969416067004204,-1.30385160446167e-08,0.0,-0.0782850831747055,0.5521525144577026,-0.0010031973846211795,-0.31995123624801636,0.09254036098718643,-0.3982362747192383,0.5518757700920105,3.4874937534332275,0.4894437789916992,,,,,,,
4410976000.0,76.93,-1.8700000047683716,12485313536.0,1143.5171690292989,3.0,-0.010461174882948399,16384.0,14.139195919036865,7.945033519973776e-15,0.0,2.69405460357666,-0.026940541341900826,0.1711980700492859,-0.026940545067191124,3.725290298461914e-09,0.0,0.013224462047219276,0.5850682258605957,0.006238242338819422,-0.6608506441116333,0.1755305826663971,-0.6476262211799622,0.5869017243385315,3.5819313526153564,0.48944735527038574,,,,,,,
4608712000.0,80.44,-1.9600000381469727,12485313536.0,1205.9437040414725,4.0,-0.011818177998065948,20480.0,17.535706043243408,8.715250743307479e-15,0.0,2.6805200576782227,-0.026805203408002853,0.20022448897361755,-0.026805199682712555,-2.7939677238464355e-09,0.0,0.0377734899520874,0.6317591071128845,0.10654930353438719,-0.9054441452026367,0.23403015732765198,-0.8676706552505493,0.6683688759803772,3.396510124206543,0.48917365074157715,,,,,,,
4806184000.0,81.44,-2.0199999809265137,12485313536.0,1203.89962624168,5.0,-0.012040466070175171,24576.0,20.93798303604126,1.1608769501236793e-14,0.0,2.6485695838928223,-0.026485687121748924,0.2208750694990158,-0.02648569457232952,7.450580596923828e-09,0.0,0.042860910296440125,0.6633404493331909,0.05084665734047167,-0.861800491809845,0.20181392133235931,-0.8189395666122437,0.6808764338493347,3.4022769927978516,0.4891538619995117,,,,,,,
5003920000.0,78.73,-1.590000033378601,12485313536.0,1192.683696486763,6.0,-0.010417520999908447,28672.0,24.372254848480225,1.2307863062055446e-14,0.0,2.6053104400634766,-0.026053108274936676,0.167654886841774,-0.026053104549646378,-4.6566128730773926e-09,0.0,0.016511477530002594,0.5788946151733398,0.09755978741608262,-0.664511501789093,0.18477432429790497,-0.6480000615119934,0.6093829274177551,3.434271812438965,0.48946332931518555,,,,,,,
5202184000.0,75.15,-1.940000057220459,12485313536.0,1182.3796820750908,7.0,-0.015007058158516884,32768.0,27.83645510673523,1.3263695697318667e-14,0.0,2.5172274112701416,-0.025172272697091103,0.208054780960083,-0.025172272697091103,0.0,0.0,-0.0858459323644638,0.6394057869911194,0.06717961182750398,-0.5491728782653809,0.17058458924293518,-0.6350188255310059,0.6620298624038696,3.464200258255005,0.4920198917388916,,,,,,,
5400712000.0,70.54,-2.559999942779541,12485313536.0,1208.585608787427,8.0,-0.017819726839661598,36864.0,31.22554063796997,1.3983605939849042e-14,0.0,2.5002126693725586,-0.025002123787999153,0.21923013031482697,-0.025002125650644302,1.862645149230957e-09,0.0,-0.07554688304662704,0.6579199433326721,0.12334272077690067,-0.562989354133606,0.20990857481956482,-0.638536274433136,0.7026808261871338,3.389085531234741,0.4918978214263916,,,,,,,
5598184000.0,70.99,-2.059999942779541,12485313536.0,1186.3750066034909,9.0,-0.009082713164389133,40960.0,34.67807459831238,1.490821355254468e-14,0.0,2.425332546234131,-0.024253331124782562,0.1383173167705536,-0.024253325536847115,-5.587935447692871e-09,0.0,0.054373860359191895,0.5232064127922058,0.09055690107235637,-0.6721453666687012,0.21958106756210327,-0.617771565914154,0.5486372709274292,3.4525339603424072,0.4896409511566162,,,,,,,
5795920000.0,71.2,-1.5099999904632568,12485313536.0,1182.3399721287726,10.0,-0.012157164514064789,45056.0,38.142391204833984,1.5482407023093003e-14,0.0,2.436363697052002,-0.024363640695810318,0.17845812439918518,-0.02436363697052002,-3.725290298461914e-09,0.0,-0.044524986296892166,0.5958359241485596,-0.015120075252919252,-0.5865188837051392,0.1987103968858719,-0.6310439109802246,0.591381847858429,3.4643166065216064,0.48962950706481934,,,,,,,
5993444000.0,72.25,-1.25,12485313536.0,1167.6215126726638,11.0,-0.005778213031589985,49152.0,41.65037727355957,1.4301060335952798e-14,0.0,2.411923885345459,-0.02411922998726368,0.12654024362564087,-0.024119237437844276,7.450580596923828e-09,0.0,0.08309800177812576,0.49622106552124023,0.094343115752341,-0.6199951171875,0.2201106995344162,-0.5368970632553101,0.5214267373085022,3.507986068725586,0.4893767833709717,,,,,,,
6190124000.0,72.22,-0.949999988079071,12485313536.0,1176.0428515491299,12.0,-0.009888555854558945,53248.0,45.133243560791016,1.5758228055773316e-14,0.0,2.3433823585510254,-0.023433826863765717,0.14840298891067505,-0.023433823138475418,-3.725290298461914e-09,0.0,0.030315101146697998,0.5440213084220886,0.13168978946840215,-0.607200562953949,0.27226901054382324,-0.576885461807251,0.5838193297386169,3.4828662872314453,0.4892122745513916,,,,,,,
6387860000.0,72.27,-1.3200000524520874,12485313536.0,1201.00101778271,13.0,-0.009124347008764744,57344.0,48.543731927871704,1.5251688800788088e-14,0.0,2.3587265014648438,-0.023587260395288467,0.13843055069446564,-0.023587264120578766,3.725290298461914e-09,0.0,-0.0016897227615118027,0.526237428188324,0.019587155072933737,-0.491046667098999,0.18899217247962952,-0.4927363991737366,0.5314682126045227,3.4104883670806885,0.49315571784973145,,,,,,,
6585332000.0,73.42,-1.1200000047683716,12485313536.0,1209.4734726233103,14.0,-0.008434909395873547,61440.0,51.93032956123352,1.3388595787588997e-14,0.0,2.460566997528076,-0.024605663493275642,0.14336532354354858,-0.02460566908121109,5.587935447692871e-09,0.0,-0.007587766274809837,0.5354839563369751,0.045535108088101905,-0.4030425250530243,0.12730765342712402,-0.4106302857398987,0.5481083989143372,3.3865976333618164,0.5157365798950195,,,,,,,
6783068000.0,72.8,-1.350000023841858,12485313536.0,1195.0998850942362,15.0,-0.008753139525651932,65536.0,55.35765814781189,1.2542050731312315e-14,0.0,2.4963974952697754,-0.024963978677988052,0.1455923318862915,-0.024963974952697754,-4.6566128730773926e-09,0.0,-0.0585087388753891,0.5364995002746582,0.045343246951933036,-0.33395135402679443,0.09038084745407104,-0.39246007800102234,0.549092710018158,3.427328586578369,0.48912692070007324,,,,,,,
6980804000.0,70.57,-1.5099999904632568,12485313536.0,1155.3341966798616,16.0,-0.014173694886267185,69632.0,58.902952671051025,1.2427558981897846e-14,0.0,2.514702558517456,-0.025147022679448128,0.19823771715164185,-0.025147024542093277,1.862645149230957e-09,0.0,-0.09390848129987717,0.6226968169212341,0.004779074823004992,-0.3582707643508911,0.07693090289831161,-0.4521792531013489,0.624190092086792,3.5452945232391357,0.48910069465637207,,,,,,,
7178276000.0,72.3,-1.5800000429153442,12485313536.0,1199.7091893954398,17.0,-0.005863011348992586,73728.0,62.317113399505615,1.2526438220028524e-14,0.0,2.586904764175415,-0.025869058445096016,0.1047048419713974,-0.02586904726922512,-1.1175870895385742e-08,0.0,0.03150331974029541,0.4565831422805786,0.08202234157366894,-0.3758237361907959,0.08092974871397018,-0.3443204164505005,0.47654488682746887,3.41416072845459,0.48917055130004883,,,,,,,
7376012000.0,77.0,-1.149999976158142,12485313536.0,1219.1361541340455,18.0,-0.010892154648900032,77824.0,65.67686939239502,1.0283440765590512e-14,0.0,2.6382083892822266,-0.0263820830732584,0.15183447301387787,-0.0263820830732584,0.0,0.0,-0.06330239772796631,0.5474805235862732,0.024965443631576822,-0.3346351683139801,0.08703214675188065,-0.3979375958442688,0.5544452667236328,3.3597559928894043,0.489152193069458,,,,,,,
7573484000.0,78.64,-1.5199999809265137,12485313536.0,1227.3738154020011,19.0,-0.009287522174417973,81920.0,69.01407599449158,8.493206138382448e-15,0.0,2.66273832321167,-0.026627380400896072,0.2051684558391571,-0.02662738226354122,1.862645149230957e-09,0.0,-0.06999348104000092,0.6368177533149719,0.062364551826370906,-0.36932045221328735,0.09025218337774277,-0.4393139183521271,0.6576550602912903,3.3372066020965576,0.48925280570983887,,,,,,,
7771220000.0,79.37,-1.6799999475479126,12485313536.0,1172.126775686658,20.0,-0.010152656584978104,86016.0,72.50857853889465,8.7360674250192e-15,0.0,2.66774845123291,-0.026677465066313744,0.181819349527359,-0.026677483692765236,1.909211277961731e-08,0.0,-0.0665368139743805,0.5994157791137695,0.028566075056483675,-0.4264833331108093,0.10671604424715042,-0.49302011728286743,0.6081652045249939,3.494502544403076,0.4891047477722168,,,,,,,
7969484000.0,78.25,-1.9900000095367432,12485313536.0,1178.443752616021,21.0,-0.017628125846385956,90112.0,75.98434901237488,8.493206138382448e-15,0.0,2.6736135482788086,-0.026736130937933922,0.2715716063976288,-0.02673613466322422,3.725290298461914e-09,0.0,-0.1324242204427719,0.7250760793685913,-0.006654775401877755,-0.5388830900192261,0.1314830482006073,-0.6713073253631592,0.7226754426956177,3.4757704734802246,0.4891355037689209,,,,,,,
8167220000.0,77.51,-2.299999952316284,12485313536.0,1217.0796528023614,22.0,-0.01298539713025093,94208.0,79.34978199005127,8.069933610244107e-15,0.0,2.672334671020508,-0.026723358780145645,0.20612353086471558,-0.0267233457416296,-1.30385160446167e-08,0.0,0.004637746140360832,0.6421263813972473,0.07020561880964649,-0.7783644795417786,0.16962015628814697,-0.7737267017364502,0.6659276485443115,3.3654329776763916,0.4890146255493164,,,,,,,
8365744000.0,75.94,-1.940000057220459,12485313536.0,1214.7826444562922,23.0,-0.011160558089613914,98304.0,82.72157859802246,7.924216838262055e-15,0.0,2.678521156311035,-0.026785219088196754,0.23558646440505981,-0.026785211637616158,-7.450580596923828e-09,0.0,0.0629078596830368,0.6836150884628296,0.06122851528386086,-0.9199633598327637,0.21675962209701538,-0.8570554256439209,0.7055562734603882,3.3717966079711914,0.49195194244384766,,,,,,,
8563216000.0,76.89,-1.4299999475479126,12485313536.0,1233.2735416519056,24.0,-0.0073783500120043755,102400.0,86.04282069206238,6.536438057480609e-15,0.0,2.682145595550537,-0.026821454986929893,0.21282844245433807,-0.026821454986929893,0.0,0.0,0.11535314470529556,0.6422236561775208,0.048466893315642356,-0.960598886013031,0.27221235632896423,-0.8452457785606384,0.6583766341209412,3.321242094039917,0.4895796775817871,,,,,,,
8760536000.0,80.35,-1.440000057220459,12485313536.0,1190.6493797106118,25.0,-0.011568079702556133,106496.0,89.48296022415161,6.841749389252527e-15,0.0,2.6852118968963623,-0.026852134615182877,0.20120331645011902,-0.026852117851376534,-1.6763806343078613e-08,0.0,0.04331233724951744,0.6329521536827087,0.010379381108946983,-0.8155292272567749,0.21960072219371796,-0.7722169160842896,0.6362627744674683,3.4401395320892334,0.49207353591918945,,,,,,,
8958144000.0,80.55,-1.6100000143051147,12485313536.0,1212.8294887828301,26.0,-0.011176584288477898,110592.0,92.86018681526184,5.738465258531278e-15,0.0,2.6915793418884277,-0.026915792375802994,0.1723664402961731,-0.026915792375802994,0.0,0.0,-0.006868787109851837,0.5871710777282715,0.07429138563150628,-0.5823705792427063,0.14772571623325348,-0.5892393589019775,0.6102776527404785,3.3772265911102295,0.489119291305542,,,,,,,
9155720000.0,83.07,-2.119999885559082,12485313536.0,1188.2674903170678,27.0,-0.011979018338024616,114688.0,96.30722212791443,5.814793091474257e-15,0.0,2.6925902366638184,-0.02692590095102787,0.20801368355751038,-0.02692590095102787,0.0,0.0,-0.04463784396648407,0.6435339450836182,-0.029910530558063364,-0.5209531784057617,0.12337304651737213,-0.5655910968780518,0.6341204643249512,3.447035312652588,0.4889974594116211,,,,,,,
9353280000.0,83.33,-1.6399999856948853,12485313536.0,1162.900063614773,28.0,-0.007162313908338547,118784.0,99.82945084571838,6.328271240363392e-15,0.0,2.6891403198242188,-0.026891393586993217,0.139707550406456,-0.026891402900218964,9.313225746154785e-09,0.0,0.0431896448135376,0.5268942713737488,0.07186063303957824,-0.5323311686515808,0.166690856218338,-0.4891415238380432,0.5469112396240234,3.522228717803955,0.5073246955871582,,,,,,,
9550848000.0,74.86,-1.3700000047683716,12485313536.0,1160.079743867568,29.0,-0.011887317523360252,122880.0,103.36024260520935,7.0360384185619296e-15,0.0,2.688606023788452,-0.026886066421866417,0.16568250954151154,-0.02688605897128582,-7.450580596923828e-09,0.0,-0.012485481798648834,0.575577974319458,0.13382090095881172,-0.47237682342529297,0.1705143004655838,-0.4848622679710388,0.6184438467025757,3.530791759490967,0.4922339916229248,,,,,,,
9748024000.0,74.44,-1.9199999570846558,12485313536.0,1207.6376693877617,30.0,-0.012833980843424797,126976.0,106.7519884109497,7.258083023486961e-15,0.0,2.687713146209717,-0.02687714993953705,0.20263922214508057,-0.026877131313085556,-1.862645149230957e-08,0.0,-0.08992571383714676,0.6303085088729858,-0.0027974543179341005,-0.38872939348220825,0.09125234186649323,-0.4786550998687744,0.6294287443161011,3.3917458057403564,0.4895131587982178,,,,,,,
9945552000.0,73.43,-1.399999976158142,12485313536.0,1218.54192220423,31.0,-0.006450161337852478,131072.0,110.1133828163147,7.042977312465837e-15,0.0,2.6866345405578613,-0.02686634473502636,0.12378902733325958,-0.02686634473502636,0.0,0.0,0.018370479345321655,0.4972936511039734,0.03931564901654239,-0.38313785195350647,0.0975693017244339,-0.3647673726081848,0.5073673725128174,3.3613944053649902,0.4892921447753906,,,,,,,
,,,,,,,,,,,,,,,,,,,,,,,,,,0.0015029419446364045,0.20046812295913696,0.19743531942367554,0.0015029419446364045,0.20046812295913696,0.19743531942367554,
,,,,,,,,,,,,,,,,,,,,,,,,,,0.0005641347379423678,0.1855195164680481,0.18388721346855164,0.0005641347379423678,0.1855195164680481,0.18388721346855164,
,,,,,,,,,,,,,,,,,,,,,,,,,,0.0007806597277522087,0.1725754737854004,0.16995561122894287,0.0007806597277522087,0.1725754737854004,0.16995561122894287,
,,,,,,,,,,,,,,,,,,,,,,,,,,0.0006089289672672749,0.16090916097164154,0.16136331856250763,0.0006089289672672749,0.16090916097164154,0.16136331856250763,
,,,,,,,,,,,,,,,,,,,,,,,,,,0.0005797519697807729,0.14703097939491272,0.1480592042207718,0.0005797519697807729,0.14703097939491272,0.1480592042207718,
,,,,,,,,,,,,,,,,,,,,,,,,,,0.0005277429590933025,0.13896885514259338,0.1407187432050705,0.0005277429590933025,0.13896885514259338,0.1407187432050705,
,,,,,,,,,,,,,,,,,,,,,,,,,,,,,,,,-2.39
9998776000.0,73.47,-1.25,12293100544.0,27.30575866734651,32.0,-0.010701431892812252,135168.0,260.1183707714081,7.868705687030797e-15,0.0,2.683285713195801,-0.02683286741375923,0.15901052951812744,-0.026832856237888336,-1.210719347000122e-08,0.0,0.03372552618384361,0.5629929304122925,0.46856440244190045,-0.7119463086128235,0.4160917401313782,-0.678220808506012,0.7722851037979126,150.00498795509338,0.5146863460540771,,,,,,,
9998776000.0,75.61,-1.75,12495335936.0,1219.0952345573412,33.0,-0.009858386591076851,139264.0,263.4782395362854,9.298117831235686e-15,0.0,2.6804094314575195,-0.026804085820913315,0.141259104013443,-0.026804093271493912,7.450580596923828e-09,0.0,0.019644003361463547,0.5312261581420898,0.5194316728770227,-0.683529257774353,0.435589462518692,-0.663885235786438,0.7663054466247559,3.3598687648773193,0.48932385444641113,,,,,,,
9998776000.0,77.86,-2.2100000381469727,12495335936.0,1235.3930865927261,34.0,-0.01759176328778267,143360.0,266.7937834262848,1.016547956922409e-14,0.0,2.6762771606445312,-0.02676277793943882,0.1856820285320282,-0.026762770488858223,-7.450580596923828e-09,0.0,-0.058834999799728394,0.6066237688064575,0.5125139760982098,-0.804763913154602,0.5055527687072754,-0.8635989427566528,0.8688371181488037,3.3155438899993896,0.48912644386291504,,,,,,,
9998776000.0,78.64,-1.9299999475479126,12495335936.0,1195.078187020587,35.0,-0.009354427456855774,147456.0,270.2211742401123,9.194034422677078e-15,0.0,2.673862934112549,-0.026738617569208145,0.1552329808473587,-0.02673862874507904,1.1175870895385742e-08,0.0,0.0826978087425232,0.5510908961296082,0.5239909646044006,-0.7272468209266663,0.4915032684803009,-0.6445490121841431,0.7987587451934814,3.4273908138275146,0.4890446662902832,,,,,,,
9998776000.0,76.25,-1.5499999523162842,12495335936.0,1234.109404703616,36.0,-0.011908626183867455,151552.0,273.5401668548584,9.665879208142769e-15,0.0,2.668074131011963,-0.026680737733840942,0.14240480959415436,-0.02668074145913124,4.6566128730773926e-09,0.0,0.023501716554164886,0.5332229137420654,0.6519601126134686,-0.7488065361976624,0.5743016004562378,-0.7253048419952393,0.9038457274436951,3.3189926147460938,0.4892446994781494,,,,,,,
9998776000.0,73.66,-1.7100000381469727,12495335936.0,1236.2368077848685,37.0,-0.011036449111998081,155648.0,276.85344791412354,1.1178558079194545e-14,0.0,2.655728578567505,-0.026557276025414467,0.16786712408065796,-0.026557285338640213,9.313225746154785e-09,0.0,0.06708864867687225,0.5755990743637085,0.6446980265549351,-0.8174120783805847,0.6435443162918091,-0.7503234148025513,0.9656533598899841,3.3132810592651367,0.48915910720825195,,,,,,,
9998776000.0,73.93,-2.009999990463257,12495335936.0,1235.9645682663033,38.0,-0.014746985398232937,159744.0,280.1674587726593,1.165907648204012e-14,0.0,2.6291027069091797,-0.02629101648926735,0.1807323396205902,-0.026291025802493095,9.313225746154785e-09,0.0,0.04444798827171326,0.5996472239494324,0.6489350884689924,-0.8959072828292847,0.7116925120353699,-0.851459264755249,1.0120502710342407,3.3140108585357666,0.4891173839569092,,,,,,,
9998776000.0,72.54,-1.7799999713897705,12495335936.0,1248.600342081306,39.0,-0.008364908397197723,163840.0,283.4479320049286,1.0821205043143323e-14,0.0,2.6286425590515137,-0.026286441832780838,0.12248107045888901,-0.026286425068974495,-1.6763806343078613e-08,0.0,0.12609423696994781,0.47866305708885193,0.7044990764072605,-0.7538481950759888,0.6885010600090027,-0.6277539730072021,0.8805428147315979,3.280473232269287,0.48932695388793945,,,,,,,
9998776000.0,72.9,-1.2799999713897705,12495335936.0,1275.7844599952384,40.0,-0.009337825700640678,167936.0,286.6585056781769,1.0918349557798024e-14,0.0,2.612534761428833,-0.026125343516469002,0.158848837018013,-0.0261253472417593,3.725290298461914e-09,0.0,0.09190608561038971,0.5561712384223938,0.6239825126078489,-0.7342124581336975,0.752892255783081,-0.6423063278198242,0.9069941639900208,3.210573673248291,0.48909711837768555,,,,,,,
9998776000.0,74.93,-1.5199999809265137,12495335936.0,1238.4855602513755,41.0,-0.011288825422525406,172032.0,289.96577072143555,1.0946105133413653e-14,0.0,2.595597267150879,-0.025955982506275177,0.10908465832471848,-0.02595597133040428,-1.210719347000122e-08,0.0,0.03404219448566437,0.4659006595611572,0.6915299244931106,-0.61055588722229,0.6762131452560425,-0.5765136480331421,0.8388547897338867,3.307265043258667,0.4892141819000244,,,,,,,
9998776000.0,73.17,-1.4600000381469727,12495335936.0,1242.9951073516775,42.0,-0.0074228644371032715,176128.0,293.26103711128235,1.1412745748451414e-14,0.0,2.5624704360961914,-0.0256247166544199,0.11491252481937408,-0.025624703615903854,-1.30385160446167e-08,0.0,0.04708600789308548,0.47714099287986755,0.6717788191073629,-0.49655115604400635,0.7113401293754578,-0.4494650959968567,0.8328436017036438,3.2952663898468018,0.48922204971313477,,,,,,,
9998776000.0,72.19,-1.690000057220459,12495335936.0,1237.1795881384828,43.0,-0.01484756637364626,180224.0,296.5717933177948,1.170244456893954e-14,0.0,2.519543170928955,-0.02519543282687664,0.12996143102645874,-0.02519543096423149,-1.862645149230957e-09,0.0,-0.05238565802574158,0.5071896910667419,0.6346630844409176,-0.38101834058761597,0.5993955135345459,-0.43340402841567993,0.8391191959381104,3.310756206512451,0.48904871940612793,,,,,,,
9998776000.0,73.32,-1.4900000095367432,12495335936.0,1193.9026817357142,44.0,-0.008420047350227833,184320.0,300.0025587081909,1.2177758801357186e-14,0.0,2.5184237957000732,-0.025184236466884613,0.09389468282461166,-0.025184236466884613,-9.313225746154785e-10,0.0,0.007068513892591,0.43334195017814636,0.6876197546383647,-0.28674307465553284,0.626742959022522,-0.2796745300292969,0.7753342390060425,3.430765390396118,0.4898560047149658,,,,,,,
9998776000.0,75.24,-1.309999942779541,12495335936.0,1223.298036905004,45.0,-0.00818699598312378,188416.0,303.35088419914246,1.26478688633469e-14,0.0,2.507990598678589,-0.02507990039885044,0.11367592215538025,-0.02507990598678589,5.587935447692871e-09,0.0,-0.02979177050292492,0.4759407341480255,0.507825297848973,-0.18111172318458557,0.5214170813560486,-0.21090349555015564,0.678411602973938,3.348325490951538,0.48938536643981934,,,,,,,
9998776000.0,74.82,-1.3600000143051147,12495335936.0,1228.1359352379975,46.0,-0.009302480146288872,192512.0,306.68601989746094,1.3235940121703038e-14,0.0,2.5239405632019043,-0.025239404290914536,0.1128125786781311,-0.025239404290914536,0.0,0.0,-0.0262893196195364,0.47433000802993774,0.6227481230277967,-0.26124075055122375,0.582092821598053,-0.2875300645828247,0.772262454032898,3.3351356983184814,0.5104546546936035,,,,,,,
9998776000.0,71.87,-1.149999976158142,12495335936.0,1211.7147031978157,47.0,-0.007125018164515495,196608.0,310.066353559494,1.3258491526890737e-14,0.0,2.5098774433135986,-0.0250987708568573,0.09840644150972366,-0.0250987745821476,3.725290298461914e-09,0.0,0.00621173158288002,0.4436466693878174,0.6294382943221889,-0.24051210284233093,0.6021419763565063,-0.2343003749847412,0.7287976145744324,3.380333662033081,0.4891676902770996,,,,,,,
9998776000.0,72.72,-0.8500000238418579,12495335936.0,1227.6876387277944,48.0,-0.008008232340216637,200704.0,313.40270709991455,1.3778908569683779e-14,0.0,2.507227897644043,-0.025072263553738594,0.10416851937770844,-0.025072278454899788,1.4901161193847656e-08,0.0,0.019769422709941864,0.45606687664985657,0.5582990698163091,-0.23888924717903137,0.6273533701896667,-0.2191198468208313,0.6862216591835022,3.3363535404205322,0.48911380767822266,,,,,,,
9998776000.0,73.07,-1.2100000381469727,12495335936.0,1184.8648967169959,49.0,-0.011970145627856255,204800.0,316.85964131355286,1.3001752452446169e-14,0.0,2.507725238800049,-0.025077253580093384,0.10704073309898376,-0.025077251717448235,-1.862645149230957e-09,0.0,-0.02149120718240738,0.4622464179992676,0.7800074788155132,-0.37474483251571655,0.8804150819778442,-0.3962360620498657,0.9855293035507202,3.4569342136383057,0.4891211986541748,,,,,,,
9998776000.0,70.7,-1.4299999475479126,12495335936.0,1240.980192851813,50.0,-0.00802989024668932,208896.0,320.1602580547333,1.3700846013264822e-14,0.0,2.5048465728759766,-0.02504846826195717,0.08803002536296844,-0.02504846453666687,-3.725290298461914e-09,0.0,0.005599875934422016,0.4196089804172516,0.7838457040495436,-0.2852625250816345,0.7895194292068481,-0.2796626389026642,0.9025324583053589,3.30061674118042,0.48895859718322754,,,,,,,
9998776000.0,73.04,-0.9800000190734863,12495335936.0,1238.7802596915644,51.0,-0.007568300701677799,212992.0,323.4667363166809,1.3241144292130969e-14,0.0,2.4770374298095703,-0.024770377203822136,0.09910069406032562,-0.024770373478531837,-3.725290298461914e-09,0.0,-0.00039642397314310074,0.44525229930877686,0.7027057104944564,-0.24440431594848633,0.7977530360221863,-0.24480074644088745,0.8166066408157349,3.306478261947632,0.48950695991516113,,,,,,,
9998776000.0,72.37,-1.4600000381469727,12495335936.0,1238.0152248207369,52.0,-0.013183698989450932,217088.0,326.77525782585144,1.3570741752566562e-14,0.0,2.428865909576416,-0.024288669228553772,0.0988415777683258,-0.024288658052682877,-1.1175870895385742e-08,0.0,-0.0884949341416359,0.4357730746269226,0.6064831189462814,-0.1399056315422058,0.5735414624214172,-0.2284005582332611,0.6946702599525452,3.3085215091705322,0.48934197425842285,,,,,,,
9998776000.0,69.37,-1.5800000429153442,12495335936.0,1236.5029375085514,53.0,-0.008973730728030205,221184.0,330.0878257751465,1.5308934675495323e-14,0.0,2.3577160835266113,-0.023577146232128143,0.0938354879617691,-0.023577161133289337,1.4901161193847656e-08,0.0,-0.07639683783054352,0.42647260427474976,0.5042133178274635,-0.05199579894542694,0.4262089431285858,-0.12839263677597046,0.6056807041168213,3.312567949295044,0.4891808032989502,,,,,,,
9998776000.0,71.8,-1.340000033378601,12495335936.0,1239.2651220169678,54.0,-0.008629579097032547,225280.0,333.3930103778839,1.6249154799474752e-14,0.0,2.321263074874878,-0.02321263961493969,0.06600784510374069,-0.023212630301713943,-9.778887033462524e-09,0.0,-0.04431304708123207,0.3606713116168976,0.725154465347418,-0.1767619550228119,0.5855168700218201,-0.22107499837875366,0.6879664659500122,3.3051846027374268,0.48952698707580566,,,,,,,
9998776000.0,72.83,-1.190000057220459,12495335936.0,1235.3440508994388,55.0,-0.007280477788299322,229376.0,336.70868587493896,1.7194579093882112e-14,0.0,2.2820446491241455,-0.022820431739091873,0.058410823345184326,-0.022820446640253067,1.4901161193847656e-08,0.0,-0.041654471307992935,0.3392854928970337,0.6548581113839309,-0.08035647869110107,0.4232562184333801,-0.1220109686255455,0.5775192379951477,3.3156754970550537,0.4892253875732422,,,,,,,
9998776000.0,75.19,-1.3300000429153442,12495335936.0,1195.145362157194,56.0,-0.010550376027822495,233472.0,340.13588404655457,2.082015115867364e-14,0.0,2.1699581146240234,-0.021699588745832443,0.08685006201267242,-0.021699581295251846,-7.450580596923828e-09,0.0,-0.06279812753200531,0.4120655059814453,0.6216252036524126,-0.20800426602363586,0.4696607291698456,-0.27080237865448,0.6698925495147705,3.4271981716156006,0.48911237716674805,,,,,,,
9998776000.0,73.28,-1.6100000143051147,12495335936.0,1198.354014328182,57.0,-0.009694505482912064,237568.0,343.5539057254791,2.6574228928488708e-14,0.0,2.0386219024658203,-0.0203862227499485,0.07041233777999878,-0.020386219024658203,-3.725290298461914e-09,0.0,0.004433616995811462,0.3752857744693756,0.6498739853885922,-0.26945585012435913,0.5535022020339966,-0.26502224802970886,0.6342344880104065,3.4180216789245605,0.4891808032989502,,,,,,,
9998776000.0,73.5,-1.2000000476837158,12495335936.0,1219.6045458230499,58.0,-0.00757753849029541,241664.0,346.91237139701843,2.6515248330305496e-14,0.0,2.030050039291382,-0.020300498232245445,0.07565183937549591,-0.020300500094890594,1.862645149230957e-09,0.0,0.0310431569814682,0.38778436183929443,0.7879544848516317,-0.4431641697883606,0.7888897657394409,-0.4121210277080536,0.8421234488487244,3.3584656715393066,0.4891366958618164,,,,,,,
9998776000.0,75.13,-1.0,12495335936.0,1214.0567346176144,59.0,-0.0065921396017074585,245760.0,350.2861840724945,3.008183979691381e-14,0.0,1.9490158557891846,-0.019490156322717667,0.0673520565032959,-0.019490158185362816,2.7939677238464355e-09,0.0,0.05477450415492058,0.36295458674430847,0.6618257619847989,-0.39353883266448975,0.5426914691925049,-0.33876433968544006,0.6241400241851807,3.373812675476074,0.48926258087158203,,,,,,,
9998776000.0,72.45,-0.7900000214576721,12495335936.0,1193.7658808551432,60.0,-0.00369065860286355,249856.0,353.71734261512756,3.481416543937854e-14,0.0,1.8275697231292725,-0.01827569492161274,0.04845353960990906,-0.01827569678425789,2.3283064365386963e-09,0.0,0.05449004843831062,0.3065303564071655,0.7653992342307232,-0.3167877197265625,0.5663458108901978,-0.26229768991470337,0.6328616142272949,3.4311585426330566,0.5064926147460938,,,,,,,
9998776000.0,73.67,-0.699999988079071,12495335936.0,1213.3591138088664,61.0,-0.008424149826169014,253952.0,357.0930950641632,3.768860223907211e-14,0.0,1.7395145893096924,-0.01739514246582985,0.05332940071821213,-0.017395146191120148,3.725290298461914e-09,0.0,-0.0009721312671899796,0.3266250193119049,0.7397683492454683,-0.2512601912021637,0.5403856039047241,-0.25223231315612793,0.6402791738510132,3.3757524490356445,0.48923420906066895,,,,,,,
9998776000.0,74.01,-1.2699999809265137,12495335936.0,1201.2247260358213,62.0,-0.008951995521783829,258048.0,360.50294828414917,4.0979372673000114e-14,0.0,1.6902915239334106,-0.01690291427075863,0.06861701607704163,-0.01690291427075863,0.0,0.0,-0.0426902174949646,0.36802804470062256,0.6782763445324335,-0.2250029593706131,0.4351853132247925,-0.2676931917667389,0.6488426923751831,3.409853219985962,0.4893319606781006,,,,,,,
9998776000.0,73.38,-0.949999988079071,12495335936.0,1225.7538396424939,63.0,-0.007311757653951645,262144.0,363.8445653915405,3.6774402967232334e-14,0.0,1.723023772239685,-0.017230236902832985,0.058226797729730606,-0.017230236902832985,0.0,0.0,0.01803438737988472,0.34081771969795227,0.6289921545064447,-0.21674105525016785,0.446779727935791,-0.19870665669441223,0.5595393180847168,3.3416171073913574,0.4895758628845215,,,,,,,
,,,,,,,,,,,,,,,,,,,,,,,,,,0.014936408959329128,0.19042548537254333,0.1252058744430542,0.014936408959329128,0.19042548537254333,0.1252058744430542,
,,,,,,,,,,,,,,,,,,,,,,,,,,0.006460882257670164,0.12374382466077805,0.11245280504226685,0.006460882257670164,0.12374382466077805,0.11245280504226685,
,,,,,,,,,,,,,,,,,,,,,,,,,,0.004363954067230225,0.1071348488330841,0.10097640752792358,0.004363954067230225,0.1071348488330841,0.10097640752792358,
,,,,,,,,,,,,,,,,,,,,,,,,,,0.00341020873747766,0.10079437494277954,0.09356708079576492,0.00341020873747766,0.10079437494277954,0.09356708079576492,
,,,,,,,,,,,,,,,,,,,,,,,,,,0.004469787701964378,0.09539448469877243,0.08824610710144043,0.004469787701964378,0.09539448469877243,0.08824610710144043,
,,,,,,,,,,,,,,,,,,,,,,,,,,0.003427531337365508,0.09046811610460281,0.08320077508687973,0.003427531337365508,0.09046811610460281,0.08320077508687973,
,,,,,,,,,,,,,,,,,,,,,,,,,,,,,,,,-0.88
10023072000.0,71.91,-0.9300000071525574,12293103616.0,27.268133618351307,64.0,-0.0073288725689053535,266240.0,514.0565328598022,1.9486148805647474e-14,0.0,1.7831913232803345,-0.01783190667629242,0.04369817674160004,-0.017831912264227867,5.587935447692871e-09,0.0,0.04259845241904259,0.2925792634487152,0.6633737334110956,-0.19177758693695068,0.370620995759964,-0.1491791307926178,0.5042774677276611,150.21196746826172,0.5103816986083984,,,,,,,
10023072000.0,74.45,-0.8899999856948853,12495335936.0,1198.3465749313054,65.0,-0.004514249972999096,270336.0,517.4745757579803,1.9160020792163834e-14,0.0,1.722623348236084,-0.01722622662782669,0.05748555436730385,-0.01722623221576214,5.587935447692871e-09,0.0,0.03231848031282425,0.337571382522583,0.7562581158088004,-0.3113839626312256,0.5733845233917236,-0.27906548976898193,0.683755099773407,3.4180428981781006,0.48910045623779297,,,,,,,
10023072000.0,74.85,-0.9399999976158142,12495335936.0,1208.9884956620347,66.0,-0.009051509201526642,274432.0,520.8625319004059,2.3822957495589492e-14,0.0,1.5542175769805908,-0.015542170032858849,0.05698781460523605,-0.015542175620794296,5.587935447692871e-09,0.0,0.01930290460586548,0.3370916247367859,0.7779475485654144,-0.33184024691581726,0.6090341210365295,-0.3125373125076294,0.7153526544570923,3.387956142425537,0.4892444610595703,,,,,,,
10023072000.0,74.31,-1.309999942779541,12495335936.0,1196.9657025608155,67.0,-0.009057998657226562,278528.0,524.2845180034637,2.758383799150721e-14,0.0,1.3788368701934814,-0.013788355514407158,0.06711167842149734,-0.013788368552923203,1.30385160446167e-08,0.0,0.018872154876589775,0.36592331528663635,0.6995134109159704,-0.27816277742385864,0.517143189907074,-0.2592906355857849,0.6675403714179993,3.4219861030578613,0.4890730381011963,,,,,,,
10023072000.0,71.0,-1.2300000190734863,12495335936.0,1172.8330198017775,68.0,-0.009458187967538834,282624.0,527.7769162654877,2.7753840892152937e-14,0.0,1.460020661354065,-0.014600198715925217,0.052904628217220306,-0.014600206166505814,7.450580596923828e-09,0.0,0.028131484985351562,0.3241041898727417,0.7543904102104108,-0.27111533284187317,0.5458774566650391,-0.2429838627576828,0.6539762616157532,3.492398262023926,0.4894711971282959,,,,,,,
10023072000.0,72.77,-1.2100000381469727,12495335936.0,1222.911846746197,69.0,-0.009992284700274467,286720.0,531.1262991428375,2.387846864682075e-14,0.0,1.5116922855377197,-0.01511693000793457,0.06420731544494629,-0.015116922557353973,-7.450580596923828e-09,0.0,0.003252904862165451,0.3583788573741913,0.8062717169996266,-0.3537340462207794,0.7144721150398254,-0.35048115253448486,0.8142277002334595,3.3493828773498535,0.4895501136779785,,,,,,,
10023072000.0,74.42,-1.2899999618530273,12495335936.0,1215.060928131145,70.0,-0.01039235107600689,290816.0,534.497323513031,2.428092449324737e-14,0.0,1.611189842224121,-0.01611190102994442,0.06634564697742462,-0.01611189730465412,-3.725290298461914e-09,0.0,-0.020637106150388718,0.36372753977775574,0.7681991869076775,-0.2775156497955322,0.5778642892837524,-0.29815274477005005,0.7554725408554077,3.3710243701934814,0.4891958236694336,,,,,,,
10023072000.0,73.99,-1.399999976158142,12495335936.0,1242.4823412479868,71.0,-0.006769753992557526,294912.0,537.793949842453,2.2934779075889367e-14,0.0,1.624979019165039,-0.016249794512987137,0.050057798624038696,-0.01624978892505169,-6.51925802230835e-09,0.0,0.02096015214920044,0.3157540261745453,0.8410150743660176,-0.28538501262664795,0.7110133767127991,-0.2644248902797699,0.7919009923934937,3.296626329421997,0.4891040325164795,,,,,,,
10023072000.0,74.12,-0.7400000095367432,12495335936.0,1224.1397918433477,72.0,-0.0037814187817275524,299008.0,541.1399729251862,2.706689039566612e-14,0.0,1.5153145790100098,-0.015153156593441963,0.047551050782203674,-0.015153145417571068,-1.1175870895385742e-08,0.0,0.03113473951816559,0.30684801936149597,0.7720017284891709,-0.1896442025899887,0.5619726777076721,-0.15850946307182312,0.6426249742507935,3.3460230827331543,0.5122871398925781,,,,,,,
10023072000.0,73.54,-0.6800000071525574,12495335936.0,1245.7924586778806,73.0,-0.006015319377183914,303104.0,544.4278399944305,2.6400756580891027e-14,0.0,1.4649425745010376,-0.014649427495896816,0.038165055215358734,-0.014649425633251667,-1.862645149230957e-09,0.0,0.04050585627555847,0.27332693338394165,0.8647644551815528,-0.3038008511066437,0.6834861636161804,-0.2632949948310852,0.7432535886764526,3.2878670692443848,0.48919677734375,,,,,,,
10023072000.0,72.81,-1.0,12495335936.0,1247.8814134638133,74.0,-0.007867272011935711,307200.0,547.7102031707764,2.389928532853247e-14,0.0,1.5681746006011963,-0.01568174548447132,0.04088597744703293,-0.01568174548447132,0.0,0.0,0.026422269642353058,0.2847693860530853,0.8681378809112197,-0.3406776189804077,0.7331961393356323,-0.31425535678863525,0.7842116951942444,3.282363176345825,0.4892432689666748,,,,,,,
10023072000.0,74.92,-1.0800000429153442,12495335936.0,1203.7903838838288,75.0,-0.008412433788180351,311296.0,551.1127889156342,2.3760507450454327e-14,0.0,1.5758109092712402,-0.01575811579823494,0.04108386114239693,-0.015758108347654343,-7.450580596923828e-09,0.0,0.019674725830554962,0.2860080599784851,0.8555286147359702,-0.3303098976612091,0.6705989241600037,-0.31063514947891235,0.7524667978286743,3.402585744857788,0.4893167018890381,,,,,,,
10023072000.0,72.22,-1.0800000429153442,12495335936.0,1184.542851853448,76.0,-0.008557659573853016,315392.0,554.5706629753113,2.0497492592141953e-14,0.0,1.7077968120574951,-0.01707797311246395,0.04125576838850975,-0.017077967524528503,-4.889443516731262e-09,0.0,0.008290134370326996,0.2871636152267456,0.8375537764554929,-0.19854798913002014,0.5981351137161255,-0.19025784730911255,0.7124832272529602,3.457874059677124,0.4893004894256592,,,,,,,
10023072000.0,71.57,-1.159999966621399,12495335936.0,1224.8158990013967,77.0,-0.007382093463093042,319488.0,557.9148390293121,2.0089832575287403e-14,0.0,1.7902889251708984,-0.017902884632349014,0.04479043185710907,-0.017902888357639313,2.7939677238464355e-09,0.0,0.010947022587060928,0.29913684725761414,0.8318991667247635,-0.23687127232551575,0.6463488936424255,-0.22592423856258392,0.7296002507209778,3.3441760540008545,0.4892241954803467,,,,,,,
10023072000.0,73.0,-1.309999942779541,12495335936.0,1230.0415069855865,78.0,-0.012261290103197098,323584.0,561.2448079586029,1.777224201138239e-14,0.0,1.8971794843673706,-0.018971791490912437,0.05017811805009842,-0.018971795216202736,3.725290298461914e-09,0.0,-0.01968958042562008,0.3162166476249695,0.8310981259722414,-0.22533008456230164,0.6760196089744568,-0.24501967430114746,0.7694271206855774,3.3299689292907715,0.48925280570983887,,,,,,,
10023072000.0,72.66,-1.4600000381469727,12495335936.0,1175.8380807986232,79.0,-0.008582474663853645,327680.0,564.7282807826996,1.8084492237058214e-14,0.0,2.027100086212158,-0.020270997658371925,0.04087171331048012,-0.020270999521017075,1.862645149230957e-09,0.0,0.010710830800235271,0.28574225306510925,0.8528342512669603,-0.20181241631507874,0.6832528114318848,-0.1911015808582306,0.7448538541793823,3.4834728240966797,0.48925018310546875,,,,,,,
10023072000.0,73.17,-1.2599999904632568,12495335936.0,1217.2006343094772,80.0,-0.009526384994387627,331776.0,568.0933792591095,1.597853793722237e-14,0.0,2.096660852432251,-0.020966608077287674,0.04622882977128029,-0.020966608077287674,0.0,0.0,-0.03217111527919769,0.3023987412452698,0.8513280208695255,-0.225042462348938,0.7296066284179688,-0.2572135925292969,0.7842696905136108,3.365098476409912,0.48932600021362305,,,,,,,
10023072000.0,75.03,-1.1699999570846558,12495335936.0,1197.1934160829317,81.0,-0.007158623076975346,335872.0,571.5147144794464,1.469657728847551e-14,0.0,2.210127830505371,-0.022101271897554398,0.04954642802476883,-0.022101277485489845,4.6566128730773926e-09,0.0,-0.019348010420799255,0.31423336267471313,0.8286737055523081,-0.1888827085494995,0.6812852025032043,-0.20823070406913757,0.7591722011566162,3.421335220336914,0.4891014099121094,,,,,,,
10023072000.0,72.55,-0.8100000023841858,12495335936.0,1227.0789957760448,82.0,-0.006778309587389231,339968.0,574.8527228832245,1.4909948276020657e-14,0.0,2.2210965156555176,-0.022210968658328056,0.04837104678153992,-0.022210964933037758,-3.725290298461914e-09,0.0,0.00737726641818881,0.31098437309265137,0.8314436186334779,-0.25502312183380127,0.7262383699417114,-0.24764585494995117,0.757470965385437,3.338008403778076,0.48934102058410645,,,,,,,
10023072000.0,73.62,-0.7599999904632568,12495335936.0,1246.3932264179045,83.0,-0.0071929143741726875,344064.0,578.1390051841736,1.3922890618189854e-14,0.0,2.3149566650390625,-0.023149581626057625,0.07928352802991867,-0.02314956672489643,-1.4901161193847656e-08,0.0,-0.0171336866915226,0.3978845775127411,0.7401362061415343,-0.24294713139533997,0.6579784750938416,-0.26008081436157227,0.7805203199386597,3.2862823009490967,0.4893615245819092,,,,,,,
10023072000.0,71.87,-0.949999988079071,12495335936.0,1192.5987496638415,84.0,-0.006000925786793232,348160.0,581.5735216140747,1.4153608840494769e-14,0.0,2.281507968902588,-0.022815074771642685,0.048810429871082306,-0.022815078496932983,3.725290298461914e-09,0.0,0.041745398193597794,0.3096798360347748,0.8195290464819116,-0.22761675715446472,0.7057467103004456,-0.18587136268615723,0.7289692759513855,3.434516429901123,0.4893050193786621,,,,,,,
10023072000.0,70.81,-0.41999998688697815,12495335936.0,1232.1016108596168,85.0,-0.0017381430370733142,352256.0,584.8979227542877,1.4445042384458873e-14,0.0,2.3130416870117188,-0.023130420595407486,0.043435368686914444,-0.023130416870117188,-3.725290298461914e-09,0.0,0.043593958020210266,0.2915322482585907,0.7881340400859608,-0.1383218914270401,0.6176860928535461,-0.09472793340682983,0.6333678364753723,3.3244011402130127,0.48949289321899414,,,,,,,
10023072000.0,71.75,-0.5199999809265137,12495335936.0,1229.830619536545,86.0,-0.006164591293781996,356352.0,588.2284626960754,1.5210055437364645e-14,0.0,2.3161442279815674,-0.02316144108772278,0.06878862529993057,-0.02316144108772278,0.0,0.0,0.0025487020611763,0.3709506392478943,0.7783689133998384,-0.2511965036392212,0.7340947985649109,-0.2486477941274643,0.787953794002533,3.3305399417877197,0.5070998668670654,,,,,,,
10023072000.0,71.65,-0.7900000214576721,12495335936.0,1201.3522367104292,87.0,-0.0063127209432423115,360448.0,591.6379539966583,1.502270530195915e-14,0.0,2.3319191932678223,-0.023319186642766,0.06742331385612488,-0.023319192230701447,5.587935447692871e-09,0.0,-0.009377053007483482,0.3671397268772125,0.7878167805281251,-0.2577749788761139,0.7692017555236816,-0.2671520411968231,0.7970322370529175,3.4094913005828857,0.4894087314605713,,,,,,,
10023072000.0,70.72,-1.2899999618530273,12495335936.0,1206.748683401172,88.0,-0.013426568359136581,364544.0,595.0321984291077,1.4698312011951487e-14,0.0,2.3123369216918945,-0.02312336675822735,0.07040674984455109,-0.023123368620872498,1.862645149230957e-09,0.0,-0.023159855976700783,0.37458160519599915,0.820169418955179,-0.3349747061729431,0.7758466601371765,-0.35813456773757935,0.8833131194114685,3.394244432449341,0.4893977642059326,,,,,,,
10023072000.0,71.72,-1.2999999523162842,12495335936.0,1193.9410978087053,89.0,-0.008075709454715252,368640.0,598.4628534317017,1.472953703451907e-14,0.0,2.34305739402771,-0.02343057282269001,0.044030867516994476,-0.02343057282269001,0.0,0.0,-0.0038039032369852066,0.2967638075351715,0.8215420052208351,-0.21168696880340576,0.6335586309432983,-0.21549087762832642,0.7024945616722107,3.430655002593994,0.48894524574279785,,,,,,,
10023072000.0,71.6,-1.2699999809265137,12495335936.0,1213.6279149544116,90.0,-0.010368566028773785,372736.0,601.8378582000732,1.478331346227435e-14,0.0,2.3401589393615723,-0.02340157888829708,0.059488024562597275,-0.023401588201522827,9.313225746154785e-09,0.0,-0.02365255355834961,0.34415915608406067,0.7849395241003564,-0.2424529641866684,0.6454445719718933,-0.2661055326461792,0.7421283721923828,3.375004768371582,0.48932695388793945,,,,,,,
10023072000.0,70.85,-1.1799999475479126,12495335936.0,1216.1143875426467,91.0,-0.007950738072395325,376832.0,605.2059624195099,1.5711390521921942e-14,0.0,2.314852714538574,-0.023148519918322563,0.06977979838848114,-0.02314852736890316,7.450580596923828e-09,0.0,-0.005126140080392361,0.37358716130256653,0.799241791761705,-0.2858998477458954,0.736912727355957,-0.29102596640586853,0.8337874412536621,3.3681042194366455,0.4891817569732666,,,,,,,
10023072000.0,73.5,-0.7300000190734863,12495335936.0,1198.9856967175388,92.0,-0.005268119741231203,380928.0,608.6221833229065,1.5213524884316598e-14,0.0,2.332402467727661,-0.023324009031057358,0.05029614269733429,-0.02332402393221855,1.4901161193847656e-08,0.0,0.015707435086369514,0.3168123662471771,0.8158033266259979,-0.23691293597221375,0.6776146292686462,-0.22120550274848938,0.7381781339645386,3.4162209033966064,0.48928117752075195,,,,,,,
10023072000.0,71.8,-0.7200000286102295,12495335936.0,1175.4147599556268,93.0,-0.004738182760775089,385024.0,612.1069107055664,1.6389667401028873e-14,0.0,2.3360557556152344,-0.02336055412888527,0.03322797641158104,-0.023360557854175568,3.725290298461914e-09,0.0,0.014154531061649323,0.25743308663368225,0.8844688452984429,-0.2686140239238739,0.6865713596343994,-0.2544595003128052,0.7573816776275635,3.484727382659912,0.4894421100616455,,,,,,,
10023072000.0,73.17,-0.5799999833106995,12495335936.0,1205.9641900316403,94.0,-0.0036638211458921432,389120.0,615.5033631324768,1.6259563140330613e-14,0.0,2.350820541381836,-0.023508215323090553,0.0400318019092083,-0.023508204147219658,-1.1175870895385742e-08,0.0,0.011279654689133167,0.282764732837677,0.8120720773185953,-0.15710654854774475,0.5464687943458557,-0.14582689106464386,0.6522732973098755,3.3964524269104004,0.4894101619720459,,,,,,,
10023072000.0,73.27,-0.6200000047683716,12495335936.0,1232.3434210042126,95.0,-0.005979834124445915,393216.0,618.8271119594574,1.6656814816329302e-14,0.0,2.3142805099487305,-0.023142797872424126,0.04330205172300339,-0.023142805323004723,7.450580596923828e-09,0.0,-0.00792611576616764,0.2942149043083191,0.8687771219341451,-0.28442203998565674,0.6786131262779236,-0.29234814643859863,0.812194287776947,3.323748826980591,0.4890401363372803,,,,,,,
,,,,,,,,,,,,,,,,,,,,,,,,,,0.005987805314362049,0.07112494856119156,0.04182635620236397,0.005987805314362049,0.07112494856119156,0.04182635620236397,
,,,,,,,,,,,,,,,,,,,,,,,,,,0.0034845697227865458,0.0425926111638546,0.0362088643014431,0.0034845697227865458,0.0425926111638546,0.0362088643014431,
,,,,,,,,,,,,,,,,,,,,,,,,,,0.0039980062283575535,0.040255654603242874,0.03577953949570656,0.0039980062283575535,0.040255654603242874,0.03577953949570656,
,,,,,,,,,,,,,,,,,,,,,,,,,,0.002688364824280143,0.035011157393455505,0.031172987073659897,0.002688364824280143,0.035011157393455505,0.031172987073659897,
,,,,,,,,,,,,,,,,,,,,,,,,,,0.002159741474315524,0.032534874975681305,0.029330510646104813,0.002159741474315524,0.032534874975681305,0.029330510646104813,
,,,,,,,,,,,,,,,,,,,,,,,,,,0.001979169202968478,0.03097408078610897,0.027728702872991562,0.001979169202968478,0.03097408078610897,0.027728702872991562,
,,,,,,,,,,,,,,,,,,,,,,,,,,,,,,,,-1.28
10023088000.0,74.69,-0.9700000286102295,12293103616.0,27.313755225063385,96.0,-0.008442217484116554,397312.0,768.7881834506989,1.3192572034803618e-14,0.0,2.253307342529297,-0.02253306657075882,0.03107854537665844,-0.022533072158694267,6.51925802230835e-09,0.0,0.0033821631222963333,0.24932074546813965,0.908893381762954,-0.28465861082077026,0.7659538984298706,-0.2812764644622803,0.8260064721107483,149.96107149124146,0.5137336254119873,,,,,,,
10023088000.0,74.73,-1.0700000524520874,12495335936.0,1227.8235499779448,97.0,-0.008186469785869122,401408.0,772.1241676807404,1.4916887169924564e-14,0.0,2.2220499515533447,-0.02222049981355667,0.025524767115712166,-0.02222049981355667,0.0,0.0,0.008320864289999008,0.22581574320793152,0.924412357437567,-0.32790061831474304,0.7687215805053711,-0.3195797801017761,0.8213510513305664,3.335984230041504,0.48898935317993164,,,,,,,
10023088000.0,73.04,-0.9399999976158142,12495335936.0,1203.7741890210334,98.0,-0.006009507458657026,405504.0,775.5267992019653,1.3329615189405786e-14,0.0,2.2808170318603516,-0.022808175534009933,0.024420935660600662,-0.022808169946074486,-4.6566128730773926e-09,0.0,0.02673698589205742,0.21940547227859497,0.9379981939663546,-0.3041595220565796,0.8163858652114868,-0.27742254734039307,0.8811407089233398,3.4026315212249756,0.4890265464782715,,,,,,,
10023088000.0,72.65,-0.6499999761581421,12495335936.0,1208.8630165527538,99.0,-0.0038308454677462578,409600.0,778.915107011795,1.3981871216373065e-14,0.0,2.2769052982330322,-0.022769059985876083,0.020412273705005646,-0.022769052535295486,-7.450580596923828e-09,0.0,0.0036983834579586983,0.2020416557788849,0.9286610209604024,-0.21067273616790771,0.6965579986572266,-0.2069743573665619,0.7564452290534973,3.388307809829712,0.4891824722290039,,,,,,,
10023088000.0,73.23,-0.7400000095367432,12495335936.0,1216.3444509809099,100.0,-0.0076702432706952095,413696.0,782.2825741767883,1.502790947238708e-14,0.0,2.262691020965576,-0.022626910358667374,0.04297444969415665,-0.022626910358667374,0.0,0.0,0.030835270881652832,0.2915799021720886,0.8866791313832161,-0.33761489391326904,0.8329184651374817,-0.3067796230316162,0.8661689758300781,3.367467164993286,0.48900413513183594,,,,,,,
10023088000.0,73.96,-0.800000011920929,12495335936.0,1238.387715330989,101.0,-0.003979423549026251,417792.0,785.5901005268097,1.3255022079938783e-14,0.0,2.307666063308716,-0.023076679557561874,0.025691457092761993,-0.023076660931110382,-1.862645149230957e-08,0.0,0.04420413076877594,0.2223532646894455,0.9210940808101491,-0.22720596194267273,0.7818739414215088,-0.1830018311738968,0.79156893491745,3.3075263500213623,0.48940014839172363,,,,,,,
10023088000.0,75.83,-0.5,12495335936.0,1203.4697729592854,102.0,-0.005222607869654894,421888.0,788.9935927391052,1.5482407023093003e-14,0.0,2.2724764347076416,-0.022724762558937073,0.04655763879418373,-0.022724764421582222,9.313225746154785e-10,0.0,-0.004402315244078636,0.3051534593105316,0.836628646531919,-0.17960810661315918,0.7144767642021179,-0.18401041626930237,0.7549711465835571,3.4034922122955322,0.4893982410430908,,,,,,,
10023088000.0,75.01,-0.8500000238418579,12495335936.0,1226.4580851545327,103.0,-0.007286945823580027,425984.0,792.333291053772,1.4602902220772762e-14,0.0,2.2862367630004883,-0.02286236360669136,0.05211205035448074,-0.02286236733198166,3.725290298461914e-09,0.0,-0.024483870714902878,0.3219470977783203,0.8707389089902053,-0.2293975055217743,0.8177021741867065,-0.2538813650608063,0.8954691290855408,3.339698314666748,0.4890294075012207,,,,,,,
10023088000.0,71.28,-0.8500000238418579,12495335936.0,1255.9121112153002,104.0,-0.0024813939817249775,430080.0,795.5946657657623,1.4184833863062352e-14,0.0,2.286104679107666,-0.02286105416715145,0.03921741619706154,-0.022861046716570854,-7.450580596923828e-09,0.0,0.0432373583316803,0.2767382562160492,0.874030326393045,-0.2856980562210083,0.7907683849334717,-0.2424607127904892,0.7797155380249023,3.2613747119903564,0.5133776664733887,,,,,,,
10023088000.0,72.82,-0.6100000143051147,12495335936.0,1263.267846147217,105.0,-0.007041641511023045,434176.0,798.8370501995087,1.6264767310758543e-14,0.0,2.2174534797668457,-0.022174540907144547,0.041373904794454575,-0.02217453345656395,-7.450580596923828e-09,0.0,0.010765470564365387,0.2874927520751953,0.8708321193694026,-0.2325238734483719,0.7479516267776489,-0.2217583954334259,0.7999257445335388,3.242384433746338,0.4892551898956299,,,,,,,
10023088000.0,71.38,-0.7300000190734863,12495335936.0,1255.5815838251797,106.0,-0.005668375641107559,438272.0,802.0992834568024,1.573914609753757e-14,0.0,2.287940502166748,-0.022879408672451973,0.039079487323760986,-0.022879404947161674,-4.190951585769653e-09,0.0,-0.016158562153577805,0.27913597226142883,0.8570133499511916,-0.18314239382743835,0.6962843537330627,-0.19930094480514526,0.7381898760795593,3.262233257293701,0.4893312454223633,,,,,,,
10023088000.0,70.0,-0.75,12495335936.0,1238.951875079238,107.0,-0.0041566165164113045,442368.0,805.4053037166595,1.491862189340054e-14,0.0,2.293017864227295,-0.02293018065392971,0.03854773938655853,-0.02293017879128456,-1.862645149230957e-09,0.0,0.002453535795211792,0.2776837944984436,0.8220472339134597,-0.14727191627025604,0.5899256467819214,-0.14481836557388306,0.6582610607147217,3.3060202598571777,0.4891929626464844,,,,,,,
10023088000.0,74.1,-0.3100000023841858,12495335936.0,1224.0912965306081,108.0,-0.0018045639153569937,446464.0,808.7514593601227,1.5749554438393432e-14,0.0,2.2882509231567383,-0.022882496938109398,0.03181353956460953,-0.022882508113980293,1.1175870895385742e-08,0.0,0.010522829368710518,0.252055287361145,0.8367698291649484,-0.11823396384716034,0.5866519212722778,-0.10771113634109497,0.6238721609115601,3.3461556434631348,0.48917698860168457,,,,,,,
10023088000.0,75.85,-0.3799999952316284,12495335936.0,1242.1407920190038,109.0,-0.004032904282212257,450560.0,812.0489921569824,1.526730131207188e-14,0.0,2.2851576805114746,-0.022851580753922462,0.045280806720256805,-0.022851577028632164,-4.190951585769653e-09,0.0,-0.0022657630033791065,0.30096277594566345,0.8450474111759319,-0.19577442109584808,0.7187362313270569,-0.1980401873588562,0.7645631432533264,3.297532796859741,0.4893639087677002,,,,,,,
10023088000.0,74.49,-0.7599999904632568,12495335936.0,1212.438327598673,110.0,-0.008353551849722862,454656.0,815.4273083209991,1.4089424071883627e-14,0.0,2.3584303855895996,-0.02358429878950119,0.04981331527233124,-0.02358430251479149,3.725290298461914e-09,0.0,-0.05256781727075577,0.31126663088798523,0.8477619624651069,-0.19893299043178558,0.7206899523735046,-0.25150081515312195,0.7977576851844788,3.3783161640167236,0.48929905891418457,,,,,,,
10023088000.0,73.51,-1.0299999713897705,12495335936.0,1242.7074783204484,111.0,-0.008089384995400906,458752.0,818.7233374118805,1.2701645291102182e-14,0.0,2.4082932472229004,-0.024082936346530914,0.0671607106924057,-0.024082932621240616,-4.6566128730773926e-09,0.0,-0.05560285970568657,0.36230069398880005,0.7357391092100398,-0.19085264205932617,0.6080079078674316,-0.24645547568798065,0.7047786116600037,3.2960290908813477,0.48928093910217285,,,,,,,
10023088000.0,73.21,-0.8999999761581421,12495335936.0,1218.0286618931584,112.0,-0.0053046694956719875,462848.0,822.0861482620239,1.2776238400569184e-14,0.0,2.4696121215820312,-0.02469612844288349,0.03779887408018112,-0.024696120992302895,-7.450580596923828e-09,0.0,-0.023162778466939926,0.2740064859390259,0.8458888439885237,-0.12741915881633759,0.5613413453102112,-0.1505819410085678,0.6979813575744629,3.3628108501434326,0.48921847343444824,,,,,,,
10023088000.0,76.57,-0.7300000190734863,12495335936.0,1210.9406418880103,113.0,-0.0034970950800925493,466944.0,825.4686427116394,1.2758891165809416e-14,0.0,2.4391591548919678,-0.024391591548919678,0.05528346076607704,-0.024391591548919678,0.0,0.0,0.02596217580139637,0.3315414488315582,0.7217597757555316,-0.15775173902511597,0.577180027961731,-0.13178956508636475,0.6285326480865479,3.3824944496154785,0.4892098903656006,,,,,,,
10023088000.0,75.62,-0.7799999713897705,12495335936.0,1200.5718891568804,114.0,-0.007698308676481247,471040.0,828.880350112915,1.384309333829492e-14,0.0,2.404017925262451,-0.024040168151259422,0.04114656150341034,-0.024040179327130318,1.1175870895385742e-08,0.0,-0.02786506712436676,0.28554609417915344,0.8514676225609878,-0.1820530891418457,0.6258822679519653,-0.20991814136505127,0.7409103512763977,3.4117074012756348,0.4889547824859619,,,,,,,
10023088000.0,75.5,-0.6800000071525574,12495335936.0,1246.9289556454994,115.0,-0.00042080413550138474,475136.0,832.1652204990387,1.4401674297559452e-14,0.0,2.3794898986816406,-0.02379489131271839,0.02581958845257759,-0.02379489876329899,7.450580596923828e-09,0.0,0.025481153279542923,0.22583697736263275,0.8655792139188789,-0.16174668073654175,0.5648694038391113,-0.13626553118228912,0.6159732341766357,3.2848703861236572,0.48938488960266113,,,,,,,
10023088000.0,73.2,-0.25,12495335936.0,1249.3538060202732,116.0,-0.0028104428201913834,479232.0,835.4437153339386,1.5184034585224992e-14,0.0,2.312710762023926,-0.023127106949687004,0.02562299370765686,-0.023127106949687004,0.0,0.0,0.03033287078142166,0.22436176240444183,0.9139769805746506,-0.2333139181137085,0.7509716749191284,-0.20298103988170624,0.7649648785591125,3.2784948348999023,0.48935532569885254,,,,,,,
10023088000.0,69.55,-0.3700000047683716,12495335936.0,1243.9521910342803,117.0,-0.004081751685589552,483328.0,838.7364463806152,1.5910883721659275e-14,0.0,2.279148578643799,-0.022791488096117973,0.027055632323026657,-0.022791484370827675,-3.725290298461914e-09,0.0,0.045834317803382874,0.22808590531349182,0.8685459101473983,-0.20119181275367737,0.6109558939933777,-0.1553574949502945,0.6290879845619202,3.2927310466766357,0.4892270565032959,,,,,,,
10023088000.0,71.43,-0.5,12495335936.0,1251.6950786369941,118.0,-0.007472549565136433,487424.0,842.0088088512421,1.5909148998183298e-14,0.0,2.245471954345703,-0.022454718127846718,0.030243821442127228,-0.022454718127846718,0.0,0.0,0.002931038849055767,0.24595493078231812,0.9028791946308162,-0.2742193937301636,0.7354502081871033,-0.27128833532333374,0.7892223596572876,3.272362470626831,0.49605870246887207,,,,,,,
10023088000.0,73.95,-0.8500000238418579,12495335936.0,1231.8589239752262,119.0,-0.005365543067455292,491520.0,845.3338649272919,1.6524975832155064e-14,0.0,2.228431463241577,-0.022284312173724174,0.03554268181324005,-0.022284314036369324,1.862645149230957e-09,0.0,-0.010423088446259499,0.2664470970630646,0.8757643520868557,-0.2134479135274887,0.6785244941711426,-0.22387100756168365,0.7559410333633423,3.3250560760498047,0.48929691314697266,,,,,,,
10023088000.0,71.17,-0.6000000238418579,12495335936.0,1234.1851179704613,120.0,-0.006647830363363028,495616.0,848.6526539325714,1.7151211006982692e-14,0.0,2.2491703033447266,-0.022491704672574997,0.03225560113787651,-0.022491702809929848,-2.7939677238464355e-09,0.0,0.0189390666782856,0.25331440567970276,0.9050922382926118,-0.28564637899398804,0.7923905253410339,-0.26670733094215393,0.8222597241401672,3.318789005279541,0.48900890350341797,,,,,,,
10023088000.0,70.97,-0.7699999809265137,12495335936.0,1234.0209365672495,121.0,-0.005525533109903336,499712.0,851.9718844890594,1.9970136655445003e-14,0.0,2.202509880065918,-0.022025099024176598,0.02757543884217739,-0.022025099024176598,0.0,0.0,0.01155338529497385,0.23458652198314667,0.9177451158349957,-0.25771188735961914,0.7777926921844482,-0.24615849554538727,0.8179413676261902,3.319230556488037,0.4893670082092285,,,,,,,
10023088000.0,71.45,-0.6600000262260437,12495335936.0,1231.5555894231939,122.0,-0.0035476703196763992,503808.0,855.2977595329285,1.9274512541578304e-14,0.0,2.2215070724487305,-0.02221507392823696,0.029138442128896713,-0.022215070202946663,-3.725290298461914e-09,0.0,0.01065040659159422,0.24120046198368073,0.9007867262058451,-0.19476057589054108,0.752310037612915,-0.1841101497411728,0.7657609581947327,3.3258750438690186,0.48919200897216797,,,,,,,
10023088000.0,72.0,-0.3199999928474426,12495335936.0,1216.1213604919794,123.0,-0.00227526156231761,507904.0,858.6658444404602,1.7975204658071675e-14,0.0,2.2228264808654785,-0.022228261455893517,0.02719341591000557,-0.022228265181183815,3.725290298461914e-09,0.0,-0.011069286614656448,0.23297543823719025,0.8624871178422489,-0.07458542287349701,0.5943441987037659,-0.08565470576286316,0.6282586455345154,3.3680849075317383,0.48951005935668945,,,,,,,
10023088000.0,71.3,-0.25,12495335936.0,1220.2581429589468,124.0,-0.0029932595789432526,512000.0,862.0225112438202,1.7780915628762273e-14,0.0,2.303539276123047,-0.023035384714603424,0.022288896143436432,-0.02303539216518402,7.450580596923828e-09,0.0,0.00386713445186615,0.21112488210201263,0.9009244134415952,-0.12409698218107224,0.607655942440033,-0.12022984027862549,0.670742928981781,3.3566668033599854,0.4896092414855957,,,,,,,
10023088000.0,73.32,-0.41999998688697815,12495335936.0,1129.4028183876856,125.0,-0.003283663187175989,516096.0,865.6492066383362,1.8122656153529704e-14,0.0,2.2965948581695557,-0.02296595089137554,0.03317189961671829,-0.022965947166085243,-3.725290298461914e-09,0.0,0.0038719279691576958,0.25757524371147156,0.8880299811299619,-0.13900582492351532,0.6873606443405151,-0.13513390719890594,0.7697563171386719,3.626695394515991,0.4903693199157715,,,,,,,
10023088000.0,75.28,-0.36000001430511475,12495335936.0,1137.6004568447518,126.0,-0.0037189037539064884,520192.0,869.249767780304,1.7279580544204975e-14,0.0,2.2989091873168945,-0.02298908680677414,0.022375568747520447,-0.022989090532064438,4.6566128730773926e-09,0.0,0.002563649555668235,0.21155494451522827,0.9113592351494972,-0.17124752700328827,0.6580040454864502,-0.16868387162685394,0.7105692028999329,3.6005611419677734,0.48960375785827637,,,,,,,
10023088000.0,72.09,-0.6499999761581421,12495335936.0,1234.6205165165527,127.0,-0.004727424122393131,524288.0,872.5673863887787,1.829265905417543e-14,0.0,2.2785305976867676,-0.022785315290093422,0.04262876883149147,-0.022785305976867676,-9.313225746154785e-09,0.0,-0.007617517374455929,0.2919251620769501,0.8099285074754567,-0.12337243556976318,0.6007498502731323,-0.13098996877670288,0.6695963144302368,3.3176186084747314,0.48982715606689453,,,,,,,
,,,,,,,,,,,,,,,,,,,,,,,,,,0.006926708854734898,0.05577808991074562,0.03973758965730667,0.006926708854734898,0.05577808991074562,0.03973758965730667,
,,,,,,,,,,,,,,,,,,,,,,,,,,0.0029800073243677616,0.03718041628599167,0.03146635740995407,0.0029800073243677616,0.03718041628599167,0.03146635740995407,
,,,,,,,,,,,,,,,,,,,,,,,,,,0.0024803162086755037,0.03296198695898056,0.02862495742738247,0.0024803162086755037,0.03296198695898056,0.02862495742738247,
,,,,,,,,,,,,,,,,,,,,,,,,,,0.002394448034465313,0.030909672379493713,0.027015389874577522,0.002394448034465313,0.030909672379493713,0.027015389874577522,
,,,,,,,,,,,,,,,,,,,,,,,,,,0.002545334864407778,0.030095700174570084,0.025803258642554283,0.002545334864407778,0.030095700174570084,0.025803258642554283,
,,,,,,,,,,,,,,,,,,,,,,,,,,0.0024361417163163424,0.02829018048942089,0.024550234898924828,0.0024361417163163424,0.02829018048942089,0.024550234898924828,
,,,,,,,,,,,,,,,,,,,,,,,,,,,,,,,,-1.44
10023344000.0,73.85,-0.49000000953674316,12293103616.0,27.442754981962608,128.0,-0.0051648542284965515,528384.0,1021.8235380649567,1.728825416158486e-14,0.0,2.2636685371398926,-0.022636689245700836,0.030733641237020493,-0.022636685520410538,-3.725290298461914e-09,0.0,-0.0022385967895388603,0.2479461282491684,0.8727212584060589,-0.17023873329162598,0.6078389883041382,-0.1724773347377777,0.6949913501739502,149.25615167617798,0.5187227725982666,,,,,,,
10023344000.0,72.9,-0.5,12495335936.0,1211.7436760322894,129.0,-0.0027316047344356775,532480.0,1025.2037909030914,1.6354972931509337e-14,0.0,2.2163493633270264,-0.02216348797082901,0.023524485528469086,-0.022163493558764458,5.587935447692871e-09,0.0,-0.006671327631920576,0.21683159470558167,0.8650736356912362,-0.10438111424446106,0.544400155544281,-0.11105243861675262,0.5903018116950989,3.3802528381347656,0.48907470703125,,,,,,,
10023344000.0,71.98,-0.20999999344348907,12495335936.0,1223.1657382260146,130.0,0.0001440176274627447,536576.0,1028.5524785518646,1.8257964584655895e-14,0.0,2.2434182167053223,-0.022434182465076447,0.012439226731657982,-0.022434182465076447,0.0,0.0,0.004903178662061691,0.15767207741737366,0.9429292310950961,-0.07555785030126572,0.5845006108283997,-0.07065467536449432,0.660006046295166,3.3486876487731934,0.4888770580291748,,,,,,,
10023344000.0,71.62,-0.17000000178813934,12495335936.0,1203.223907106485,131.0,-0.00245260470546782,540672.0,1031.9566662311554,1.7947449082456046e-14,0.0,2.240910530090332,-0.02240910567343235,0.029238028451800346,-0.02240910567343235,0.0,0.0,0.015310059301555157,0.2413625717163086,0.8554217171995073,-0.11144677549600601,0.610607922077179,-0.09613672643899918,0.6347728967666626,3.4041876792907715,0.48915600776672363,,,,,,,
10023344000.0,74.1,-0.3199999928474426,12495335936.0,1206.8959372398094,132.0,-0.0023123198188841343,544768.0,1035.3504965305328,1.858582732161551e-14,0.0,2.2082953453063965,-0.022082950919866562,0.019364286214113235,-0.02208295278251171,1.862645149230957e-09,0.0,0.020501848310232162,0.19574882090091705,0.9323013197258458,-0.18367734551429749,0.7153415679931641,-0.16317550837993622,0.7523311376571655,3.3938302993774414,0.4891324043273926,,,,,,,
10023344000.0,72.88,-0.6299999952316284,12495335936.0,1226.061847512285,133.0,-0.0057861823588609695,548864.0,1038.6912741661072,1.913573466350016e-14,0.0,2.1986117362976074,-0.021986115723848343,0.027608580887317657,-0.021986117586493492,9.313225746154785e-10,0.0,-8.629611693322659e-05,0.2350119948387146,0.9263797423574838,-0.24892684817314148,0.8066926598548889,-0.24901315569877625,0.8661465048789978,3.340777635574341,0.4891221523284912,,,,,,,
10023344000.0,71.99,-0.6299999952316284,12495335936.0,1255.396524103541,134.0,-0.005795937962830067,552960.0,1041.953988313675,1.970645868709653e-14,0.0,2.20931339263916,-0.02209312841296196,0.030520861968398094,-0.022093134000897408,5.587935447692871e-09,0.0,-0.018269406631588936,0.24641992151737213,0.9121295501481765,-0.25279590487480164,0.821344792842865,-0.2710653245449066,0.831293523311615,3.262714147567749,0.48891544342041016,,,,,,,
10023344000.0,72.37,-0.6800000071525574,12495335936.0,1262.6410539179028,135.0,-0.006384211126714945,557056.0,1045.1979823112488,2.1005766570603157e-14,0.0,2.185631513595581,-0.021856317296624184,0.049871571362018585,-0.021856315433979034,-1.862645149230957e-09,0.0,0.006772326305508614,0.31578728556632996,0.8780370928261095,-0.3007853031158447,0.8952547907829285,-0.29401299357414246,0.9042339324951172,3.2439939975738525,0.48886775970458984,,,,,,,
10023344000.0,74.26,-0.4099999964237213,12495335936.0,1285.4191938040826,136.0,-0.00043597142212092876,561152.0,1048.384491443634,1.9446250165700008e-14,0.0,2.2187118530273438,-0.0221871230751276,0.023131895810365677,-0.022187117487192154,-5.587935447692871e-09,0.0,-0.02054453268647194,0.21413293480873108,0.8991659174553561,-0.015446972101926804,0.6032198071479797,-0.03599150478839874,0.6743413209915161,3.186509132385254,0.48923563957214355,,,,,,,
10023344000.0,73.7,-0.09000000357627869,12495335936.0,1236.1194837298312,137.0,1.4551915228366852e-10,565248.0,1051.698086977005,1.986258379993444e-14,0.0,2.2475690841674805,-0.022475682199001312,0.046588268131017685,-0.02247568964958191,7.450580596923828e-09,0.0,0.00849707517772913,0.3051672875881195,0.8163310861561304,-0.10345775634050369,0.7169914841651917,-0.09496067464351654,0.7120658159255981,3.3135955333709717,0.48912572860717773,,,,,,,
10023344000.0,71.01,0.0,12495335936.0,1239.051953887299,138.0,-0.0008747540414333344,569344.0,1055.0038402080536,2.0594637106796654e-14,0.0,2.1683263778686523,-0.021683260798454285,0.047188498079776764,-0.021683262661099434,9.313225746154785e-10,0.0,0.02053852379322052,0.3065584897994995,0.8498124634750277,-0.17089995741844177,0.7894225716590881,-0.15036143362522125,0.7910362482070923,3.305753231048584,0.4890255928039551,,,,,,,
10023344000.0,69.58,-0.3199999928474426,12495335936.0,1253.8632810056731,139.0,-0.004526476841419935,573440.0,1058.270544052124,2.079239558305801e-14,0.0,2.2149388790130615,-0.022149376571178436,0.06044096499681473,-0.02214938774704933,1.1175870895385742e-08,0.0,-0.017019521445035934,0.34730637073516846,0.7302384212178059,-0.08431240916252136,0.6498531699180603,-0.1013319343328476,0.6686867475509644,3.2667038440704346,0.4889333248138428,,,,,,,
10023344000.0,72.14,-0.4399999976158142,12495335936.0,1177.4012612681518,140.0,-0.0021928250789642334,577536.0,1061.7493920326233,2.1087298573974067e-14,0.0,2.1916086673736572,-0.021916083991527557,0.06819208711385727,-0.021916085854172707,1.862645149230957e-09,0.0,0.02623186819255352,0.3684144616127014,0.7491108422468447,-0.16505467891693115,0.6870344877243042,-0.13882280886173248,0.7355220317840576,3.4788479804992676,0.4891550540924072,,,,,,,
10023344000.0,73.22,-0.28999999165534973,12495335936.0,1243.2162919018822,141.0,-0.0016106674447655678,581632.0,1065.044072151184,1.995625886763719e-14,0.0,2.273482322692871,-0.022734826430678368,0.0428374707698822,-0.02273482270538807,-3.725290298461914e-09,0.0,-0.00916663371026516,0.2925949990749359,0.79906732785281,-0.047131843864917755,0.5736123323440552,-0.056298475712537766,0.6527420282363892,3.294680118560791,0.4892692565917969,,,,,,,
10023344000.0,72.85,-0.44999998807907104,12495335936.0,1219.3457261819794,142.0,-0.006298975087702274,585728.0,1068.403250694275,2.079239558305801e-14,0.0,2.2320475578308105,-0.022320454940199852,0.04979319125413895,-0.022320475429296494,2.0489096641540527e-08,0.0,-0.04118028283119202,0.31291288137435913,0.8419896645756574,-0.15087109804153442,0.6573042273521423,-0.19205138087272644,0.7871919274330139,3.3591785430908203,0.5133152008056641,,,,,,,
10023344000.0,71.66,-0.5,12495335936.0,1254.8513876512334,143.0,-0.0032240734435617924,589824.0,1071.6673822402954,1.9253695859866582e-14,0.0,2.277554512023926,-0.022775547578930855,0.056007761508226395,-0.022775543853640556,-3.725290298461914e-09,0.0,-0.007101651281118393,0.33465269207954407,0.7576522646396652,-0.06501001119613647,0.5580653548240662,-0.07211165130138397,0.6797901391983032,3.264131546020508,0.4888882637023926,,,,,,,
10023344000.0,71.43,-0.2800000011920929,12495335936.0,1256.1016394298424,144.0,-0.0007336046546697617,593920.0,1074.9282648563385,1.8755830222261238e-14,0.0,2.323338031768799,-0.023233380168676376,0.05047115311026573,-0.023233380168676376,0.0,0.0,-0.0004701016005128622,0.3177526295185089,0.7397835778614048,-0.048879124224185944,0.5151920914649963,-0.04934922605752945,0.6229050159454346,3.260882616043091,0.48900938034057617,,,,,,,
10023344000.0,71.58,-0.3199999928474426,12495335936.0,1197.320906748202,145.0,-0.003377244807779789,598016.0,1078.3492357730865,1.7850304567801345e-14,0.0,2.3500542640686035,-0.023500539362430573,0.07763204723596573,-0.023500541225075722,1.862645149230957e-09,0.0,-0.04246561601758003,0.391788512468338,0.7954611438389101,-0.194950670003891,0.6972033381462097,-0.23741626739501953,0.8662909269332886,3.420970916748047,0.48946499824523926,,,,,,,
10023344000.0,71.46,-0.47999998927116394,12495335936.0,1196.7257379075447,146.0,-0.0022042577620595694,602112.0,1081.771908044815,1.763519885678022e-14,0.0,2.417362689971924,-0.02417362853884697,0.050707198679447174,-0.02417362667620182,-1.862645149230957e-09,0.0,-0.029393889009952545,0.3171355426311493,0.7830515599828114,-0.010857434011995792,0.5126789212226868,-0.04025132209062576,0.6808738708496094,3.4226722717285156,0.4890170097351074,,,,,,,
10023344000.0,72.34,0.07999999821186066,12495335936.0,1256.4631320339251,147.0,0.0023544032592326403,606208.0,1085.0318524837494,1.5208320713888668e-14,0.0,2.459664821624756,-0.02459666132926941,0.029983891174197197,-0.024596648290753365,-1.30385160446167e-08,0.0,0.03432755917310715,0.2424948513507843,0.8256795376659389,-0.02923714742064476,0.5383762121200562,0.005090412683784962,0.580802321434021,3.259944438934326,0.4894852638244629,,,,,,,
10023344000.0,75.52,0.3499999940395355,12495335936.0,1262.5678403149652,148.0,0.004125307314097881,610304.0,1088.2760345935822,1.592996567989502e-14,0.0,2.497887372970581,-0.0249788761138916,0.049987033009529114,-0.024978872388601303,-3.725290298461914e-09,0.0,0.05352761596441269,0.3116610050201416,0.6556530307004866,-0.012400442734360695,0.492129385471344,0.041127175092697144,0.5311098098754883,3.2441821098327637,0.4888145923614502,,,,,,,
10023344000.0,74.34,0.1899999976158142,12495335936.0,1252.2852144299636,149.0,-0.000885325251147151,614400.0,1091.5468549728394,1.633762569674957e-14,0.0,2.4693822860717773,-0.024693816900253296,0.04683198034763336,-0.024693822488188744,4.6566128730773926e-09,0.0,-0.0140510443598032,0.30576029419898987,0.8524044487992009,-0.12986569106578827,0.6938709020614624,-0.14391674101352692,0.795874297618866,3.270820379257202,0.49179887771606445,,,,,,,
10023344000.0,72.6,-0.3199999928474426,12495335936.0,1257.947475679985,150.0,-0.004429478198289871,618496.0,1094.8029527664185,1.519617764955683e-14,0.0,2.47157621383667,-0.024715760722756386,0.04378326237201691,-0.024715760722756386,0.0,0.0,-0.001439443789422512,0.2959490418434143,0.8361488236899318,-0.0771714299917221,0.651947021484375,-0.0786108747124672,0.7311258316040039,3.2560977935791016,0.4891207218170166,,,,,,,
10023344000.0,72.69,-0.05999999865889549,12495335936.0,1148.6186207472456,151.0,0.003253380535170436,622592.0,1098.3689754009247,1.5987211554602254e-14,0.0,2.4984703063964844,-0.024984709918498993,0.04356759414076805,-0.024984702467918396,-7.450580596923828e-09,0.0,0.0191526897251606,0.2946006655693054,0.7704921216334979,0.027177341282367706,0.5948769450187683,0.046330034732818604,0.6149430871009827,3.5660226345062256,0.48908329010009766,,,,,,,
10023344000.0,73.07,-0.25999999046325684,12495335936.0,1199.923197625503,152.0,-0.006512274965643883,626688.0,1101.7825272083282,1.545638617095335e-14,0.0,2.494452714920044,-0.024944519624114037,0.05050031840801239,-0.024944527074694633,7.450580596923828e-09,0.0,-0.038399484008550644,0.3155161142349243,0.8798621074592545,-0.1909296214580536,0.7856495380401611,-0.22932909429073334,0.910293698310852,3.4135518074035645,0.48929882049560547,,,,,,,
10023344000.0,71.86,-0.4000000059604645,12495335936.0,1232.3280399013356,153.0,-0.00014816690236330032,630784.0,1105.1063175201416,1.546332506485726e-14,0.0,2.4753992557525635,-0.024753998965024948,0.0369073711335659,-0.02475399151444435,-7.450580596923828e-09,0.0,-0.004936192184686661,0.27167701721191406,0.8765781139338491,-0.05945252254605293,0.7178784012794495,-0.064388707280159,0.7733156085014343,3.3237903118133545,0.48895907402038574,,,,,,,
10023344000.0,72.4,0.25,12495335936.0,1232.8564327034667,154.0,0.004452170804142952,634880.0,1108.4286832809448,1.6124254709204422e-14,0.0,2.4350337982177734,-0.024350328370928764,0.03527050465345383,-0.02435033768415451,9.313225746154785e-09,0.0,0.07168750464916229,0.2557692229747772,0.8085522900949533,-0.052758485078811646,0.629074215888977,0.01892901211977005,0.584551990032196,3.3223657608032227,0.48907923698425293,,,,,,,
10023344000.0,73.32,0.1599999964237213,12495335936.0,1230.4310684061857,155.0,-0.0032688709907233715,638976.0,1111.7575979232788,1.6800796864835377e-14,0.0,2.394956350326538,-0.023949572816491127,0.05176211893558502,-0.02394956350326538,-9.313225746154785e-09,0.0,-0.03614802658557892,0.31975382566452026,0.864772463623814,-0.13238942623138428,0.823632001876831,-0.168537437915802,0.869527280330658,3.3289146423339844,0.4888300895690918,,,,,,,
10023344000.0,75.07,-0.23999999463558197,12495335936.0,1198.5714694144626,156.0,-0.0014878364745527506,643072.0,1115.1749994754791,1.7714996136675154e-14,0.0,2.371354579925537,-0.02371354028582573,0.03446570411324501,-0.023713545873761177,6.51925802230835e-09,0.0,0.021536920219659805,0.2616950273513794,0.8805707229594498,-0.12047071754932404,0.7373457551002502,-0.09893379360437393,0.7572513222694397,3.4174015522003174,0.5071723461151123,,,,,,,
10023344000.0,74.88,0.20000000298023224,12495335936.0,1218.2705945673795,157.0,0.003427317598834634,647168.0,1118.5371425151825,1.943410710136817e-14,0.0,2.4009885787963867,-0.024009890854358673,0.019515130668878555,-0.024009885266423225,-4.6566128730773926e-09,0.0,0.013195497915148735,0.19714367389678955,0.9138672530026181,0.028956357389688492,0.6400587558746338,0.042151860892772675,0.6717361211776733,3.362143039703369,0.48921680450439453,,,,,,,
10023344000.0,76.05,0.25,12495335936.0,1150.8945582973063,158.0,0.0007461777422577143,651264.0,1122.096113204956,2.1512305825588385e-14,0.0,2.3336548805236816,-0.023336544632911682,0.036555852741003036,-0.02333654835820198,3.725290298461914e-09,0.0,0.004103867802768946,0.27039361000061035,0.828113840667303,-0.018725022673606873,0.6133277416229248,-0.014621155336499214,0.6521928310394287,3.5589706897735596,0.4895930290222168,,,,,,,
10023344000.0,75.5,0.10000000149011612,12495335936.0,1189.0895279797735,159.0,0.0014946060255169868,655360.0,1125.5407655239105,2.2370993946196904e-14,0.0,2.3375790119171143,-0.023375799879431725,0.04161698371171951,-0.02337578870356083,-1.1175870895385742e-08,0.0,-0.03356710076332092,0.28657856583595276,0.8111602713395912,0.04663104563951492,0.6031227111816406,0.01306394673883915,0.6594730019569397,3.4446523189544678,0.4891374111175537,,,,,,,
,,,,,,,,,,,,,,,,,,,,,,,,,,0.006310641299933195,0.05483110994100571,0.04322007670998573,0.006310641299933195,0.05483110994100571,0.04322007670998573,
,,,,,,,,,,,,,,,,,,,,,,,,,,0.0036843835841864347,0.041992057114839554,0.03874218463897705,0.0036843835841864347,0.041992057114839554,0.03874218463897705,
,,,,,,,,,,,,,,,,,,,,,,,,,,0.003654657630249858,0.03838149085640907,0.035971514880657196,0.003654657630249858,0.03838149085640907,0.035971514880657196,
,,,,,,,,,,,,,,,,,,,,,,,,,,0.003775168675929308,0.036814503371715546,0.03390245512127876,0.003775168675929308,0.036814503371715546,0.03390245512127876,
,,,,,,,,,,,,,,,,,,,,,,,,,,0.0036894395016133785,0.03579702600836754,0.03240397945046425,0.0036894395016133785,0.03579702600836754,0.03240397945046425,
,,,,,,,,,,,,,,,,,,,,,,,,,,0.0032543165143579245,0.035167526453733444,0.03289294242858887,0.0032543165143579245,0.035167526453733444,0.03289294242858887,
,,,,,,,,,,,,,,,,,,,,,,,,,,,,,,,,-0.9
10023344000.0,76.26,0.07000000029802322,12293103616.0,27.328111185270153,160.0,0.00014969927724450827,659456.0,1275.4230597019196,2.098321516541546e-14,0.0,2.3205831050872803,-0.0232058297842741,0.054997850209474564,-0.0232058297842741,0.0,0.0,0.00778091698884964,0.3316051959991455,0.747244073114282,-0.08685853332281113,0.6476593017578125,-0.07907761633396149,0.6595848202705383,149.88229417800903,0.5155832767486572,,,,,,,
10023344000.0,79.87,0.05999999865889549,12495335936.0,1215.8819155933727,161.0,0.0014977643731981516,663552.0,1278.7918078899384,2.2076090955280847e-14,0.0,2.275698661804199,-0.022756990045309067,0.09460727870464325,-0.02275698632001877,-3.725290298461914e-09,0.0,-0.004111591726541519,0.43502166867256165,0.6419174582439913,-0.053683146834373474,0.6317958235740662,-0.057794734835624695,0.7269747257232666,3.368748188018799,0.48903965950012207,,,,,,,
10023344000.0,77.59,0.2800000011920929,12495335936.0,1211.528250437631,162.0,0.0020994646474719048,667648.0,1282.172661781311,2.1538326677728037e-14,0.0,2.290159225463867,-0.022901592776179314,0.04027643799781799,-0.022901590913534164,-1.862645149230957e-09,0.0,0.04347239434719086,0.2805035412311554,0.717408950210872,-0.02877756953239441,0.4775097370147705,0.014694822952151299,0.5276660919189453,3.3808538913726807,0.4891829490661621,,,,,,,
10023344000.0,78.96,0.05999999865889549,12495335936.0,1239.2095214140716,163.0,-0.002401882316917181,671744.0,1285.4779946804047,2.2627733020641472e-14,0.0,2.272408962249756,-0.022724086418747902,0.06313662976026535,-0.02272408828139305,1.862645149230957e-09,0.0,-0.0048890672624111176,0.3553592264652252,0.8082130071876399,-0.15260669589042664,0.6780406832695007,-0.15749576687812805,0.811443030834198,3.305332899093628,0.4889214038848877,,,,,,,
10023344000.0,77.49,-0.28999999165534973,12495335936.0,1187.975958723952,164.0,-0.0016517816111445427,675840.0,1288.925875902176,2.339448079702322e-14,0.0,2.212669849395752,-0.022126706317067146,0.06095259264111519,-0.02212669886648655,-7.450580596923828e-09,0.0,0.014451814815402031,0.34889259934425354,0.8409475944050115,-0.18546096980571747,0.731920063495636,-0.1710091531276703,0.8748258948326111,3.4478812217712402,0.48943519592285156,,,,,,,
10023344000.0,74.78,0.029999999329447746,12495335936.0,1124.266353946349,165.0,0.0009024012833833694,679936.0,1292.5691406726837,2.1729146260085486e-14,0.0,2.302562713623047,-0.023025622591376305,0.062316689640283585,-0.023025626316666603,3.725290298461914e-09,0.0,0.029651634395122528,0.35183003544807434,0.705280775215351,-0.11354361474514008,0.6123245358467102,-0.08389198035001755,0.6480801105499268,3.6432647705078125,0.48906445503234863,,,,,,,
10023344000.0,77.4,0.27000001072883606,12495335936.0,1248.3077551092179,166.0,0.00226002000272274,684032.0,1295.8503828048706,1.9532986339498848e-14,0.0,2.323221445083618,-0.02323220483958721,0.033389002084732056,-0.023232214152812958,9.313225746154785e-09,0.0,0.038381025195121765,0.25557941198349,0.7695608631794054,-0.033923499286174774,0.5207692980766296,0.0044575282372534275,0.5324119925498962,3.2812421321868896,0.48912787437438965,,,,,,,
10023344000.0,77.75,0.14000000059604645,12495335936.0,1250.4138067114834,167.0,0.0013579982332885265,688128.0,1299.126098394394,1.9295329223290025e-14,0.0,2.332404851913452,-0.023324046283960342,0.02867988310754299,-0.02332404814660549,1.862645149230957e-09,0.0,0.026406772434711456,0.23806782066822052,0.8140420982797896,-0.018745597451925278,0.5013481378555298,0.007661169394850731,0.5520690083503723,3.2757155895233154,0.4890620708465576,,,,,,,
10023344000.0,75.54,0.019999999552965164,12495335936.0,1242.6848261096002,168.0,0.0013600238598883152,692224.0,1302.4221875667572,1.8788789968304798e-14,0.0,2.328864812850952,-0.0232886653393507,0.030843889340758324,-0.023288646712899208,-1.862645149230957e-08,0.0,0.015363942831754684,0.24792486429214478,0.8564660749314515,-0.11002644896507263,0.5832846760749817,-0.09466250240802765,0.6543992757797241,3.2960891723632812,0.5078074932098389,,,,,,,
10023344000.0,70.69,0.03999999910593033,12495335936.0,1239.3342274690497,169.0,-0.0012099284213036299,696320.0,1305.727187871933,1.9323084798905654e-14,0.0,2.3567111492156982,-0.023567115887999535,0.050176654011011124,-0.023567110300064087,-5.587935447692871e-09,0.0,0.019896287471055984,0.31619906425476074,0.773541637787388,-0.11576208472251892,0.5926366448402405,-0.09586580097675323,0.664456307888031,3.3050003051757812,0.48924899101257324,,,,,,,
10023344000.0,76.79,0.20000000298023224,12495335936.0,1235.6808944153704,170.0,0.003786605317145586,700416.0,1309.0419595241547,1.8188575645616822e-14,0.0,2.3472812175750732,-0.02347281202673912,0.040621764957904816,-0.02347281202673912,0.0,0.0,0.044304754585027695,0.28160253167152405,0.7625360807159859,0.017589613795280457,0.5066075921058655,0.06189436838030815,0.5778800845146179,3.3147716522216797,0.48908519744873047,,,,,,,
10023344000.0,78.95,0.44999998807907104,12495335936.0,1239.4590480478012,171.0,0.00379104888997972,704512.0,1312.346626996994,1.8833892778680195e-14,0.0,2.336747169494629,-0.02336747944355011,0.030864741653203964,-0.023367471992969513,-8.381903171539307e-09,0.0,0.034238193184137344,0.2461138367652893,0.7825441299164695,0.04961574822664261,0.4614980220794678,0.08385394513607025,0.5277770161628723,3.3046674728393555,0.4891631603240967,,,,,,,
10023344000.0,76.83,0.1599999964237213,12495335936.0,1223.9288303475678,172.0,-0.0007590107852593064,708608.0,1315.69322681427,1.7761833670526528e-14,0.0,2.3734560012817383,-0.0237345639616251,0.035515181720256805,-0.0237345602363348,-3.725290298461914e-09,0.0,0.01129989791661501,0.266308069229126,0.8129915821242025,-0.011348206549882889,0.5296542048454285,-4.83095645904541e-05,0.6158199906349182,3.346599817276001,0.4889090061187744,,,,,,,
10023344000.0,75.89,0.12999999523162842,12495335936.0,1229.4815594610936,173.0,0.0033448035828769207,712704.0,1319.0247123241425,1.7598769663784708e-14,0.0,2.3823342323303223,-0.023823341354727745,0.02292601391673088,-0.023823341354727745,0.0,0.0,-0.0022107670083642006,0.21414558589458466,0.8658423407050383,0.06235014647245407,0.5034595131874084,0.06013937294483185,0.5846573114395142,3.3314855098724365,0.48911547660827637,,,,,,,
10023344000.0,78.08,0.46000000834465027,12495335936.0,1209.9364274277352,174.0,0.004568149335682392,716800.0,1322.4100141525269,1.72552944155413e-14,0.0,2.385786294937134,-0.023857859894633293,0.03305091708898544,-0.023857861757278442,2.3283064365386963e-09,0.0,0.05465339496731758,0.2512573301792145,0.824189290775285,0.0334211140871048,0.5766446590423584,0.08807450532913208,0.5992335677146912,3.3853018283843994,0.48912858963012695,,,,,,,
10023344000.0,79.71,0.5400000214576721,12495335936.0,1196.133825418274,175.0,0.0036603561602532864,720896.0,1325.8343801498413,1.7272641650301068e-14,0.0,2.388028144836426,-0.02388029545545578,0.025035612285137177,-0.023880280554294586,-1.4901161193847656e-08,0.0,0.02680736966431141,0.2221815437078476,0.859784987718019,0.01727152243256569,0.5206117033958435,0.04407888650894165,0.5933496952056885,3.424365997314453,0.4892544746398926,,,,,,,
10023344000.0,72.66,0.3499999940395355,12495335936.0,1219.0994734557164,176.0,0.0027476809918880463,724992.0,1329.1942372322083,1.564200158288287e-14,0.0,2.4842305183410645,-0.024842290207743645,0.056229591369628906,-0.02484230510890484,1.4901161193847656e-08,0.0,-0.02708246186375618,0.33429479598999023,0.6851810174317143,0.2011023908853531,0.42275044322013855,0.1740199327468872,0.5957981944084167,3.3598570823669434,0.4889850616455078,,,,,,,
10023344000.0,74.17,0.3700000047683716,12495335936.0,1244.892888324939,177.0,0.000916007615160197,729088.0,1332.4844801425934,1.560383766641138e-14,0.0,2.524434804916382,-0.025244344025850296,0.1032266914844513,-0.025244347751140594,4.6566128730773926e-09,0.0,-0.05024287849664688,0.45164015889167786,0.6479518864640015,0.1253102421760559,0.57315993309021,0.07506735622882843,0.7611873149871826,3.290242910385132,0.4890129566192627,,,,,,,
10023344000.0,76.23,0.029999999329447746,12495335936.0,1219.8396561815277,178.0,-0.0030533592216670513,733184.0,1335.8422985076904,1.4753823163182744e-14,0.0,2.5115158557891846,-0.02511516585946083,0.10134314745664597,-0.025115158408880234,-7.450580596923828e-09,0.0,-0.09598905593156815,0.4399086833000183,0.6965399775310006,0.09469452500343323,0.5904338955879211,-0.0012945234775543213,0.7985677719116211,3.357818365097046,0.4889044761657715,,,,,,,
10023344000.0,74.21,-0.03999999910593033,12495335936.0,1275.8712480150693,179.0,0.0027487403713166714,737280.0,1339.0526537895203,1.3969728152041228e-14,0.0,2.5216445922851562,-0.025216437876224518,0.06327104568481445,-0.025216445326805115,6.984919309616089e-09,0.0,-0.006286724470555782,0.35571539402008057,0.7332661323625034,0.1303120255470276,0.5424521565437317,0.12402529269456863,0.6887531876564026,3.210355281829834,0.48900723457336426,,,,,,,
10023344000.0,74.96,0.10000000149011612,12495335936.0,1234.2266134905876,180.0,-0.0015284016262739897,741376.0,1342.3713312149048,1.478331346227435e-14,0.0,2.528069019317627,-0.025280702859163284,0.08011147379875183,-0.02528068982064724,-1.210719347000122e-08,0.0,-0.05276529863476753,0.39683401584625244,0.7073594271960555,0.06040973961353302,0.5661848783493042,0.007644440978765488,0.7335700988769531,3.3186774253845215,0.4889707565307617,,,,,,,
10023344000.0,80.04,-0.07999999821186066,12495335936.0,1282.1123210588926,181.0,-0.0018353917403146625,745472.0,1345.5660591125488,1.4309733953332682e-14,0.0,2.5303609371185303,-0.025303617119789124,0.07917249202728271,-0.025303609669208527,-7.450580596923828e-09,0.0,-0.062107741832733154,0.3930971026420593,0.6880291323655314,0.09743228554725647,0.5595742464065552,0.03532455116510391,0.7037896513938904,3.194727897644043,0.4890613555908203,,,,,,,
10023344000.0,83.17,-0.019999999552965164,12495335936.0,1264.356623700538,182.0,0.001990414224565029,749568.0,1348.8056514263153,1.456647302777725e-14,0.0,2.521125555038452,-0.025211265310645103,0.040802136063575745,-0.025211254134774208,-1.1175870895385742e-08,0.0,-0.005583994556218386,0.28564491868019104,0.8225934595539217,0.019897984340786934,0.5812689065933228,0.014313986524939537,0.6781748533248901,3.2395923137664795,0.48892807960510254,,,,,,,
10023344000.0,75.11,-0.10000000149011612,12495335936.0,1227.6465817249766,183.0,-0.0006132136331871152,753664.0,1352.1421165466309,1.569057384021022e-14,0.0,2.4737987518310547,-0.024737995117902756,0.0359932966530323,-0.02473798766732216,-7.450580596923828e-09,0.0,-0.026965321972966194,0.2669772803783417,0.8805431904578493,-0.047721847891807556,0.710521936416626,-0.074687160551548,0.7724472284317017,3.3364651203155518,0.5053637027740479,,,,,,,
10023344000.0,75.63,0.019999999552965164,12495335936.0,1235.9000167977213,184.0,-0.0001534765469841659,757760.0,1355.456300497055,1.6230072841239007e-14,0.0,2.4456965923309326,-0.024456972256302834,0.032964129000902176,-0.024456964805722237,-7.450580596923828e-09,0.0,-0.0030839843675494194,0.256777822971344,0.886775605594224,-0.08513232320547104,0.700786292552948,-0.08821630477905273,0.7631106376647949,3.3141839504241943,0.4889531135559082,,,,,,,
10023344000.0,72.9,0.17000000178813934,12495335936.0,1205.5818432097296,185.0,0.002305684145539999,761856.0,1358.8538300991058,1.5194442926080853e-14,0.0,2.4514734745025635,-0.024514736607670784,0.04667286574840546,-0.024514734745025635,-1.862645149230957e-09,0.0,0.010452153161168098,0.3053837716579437,0.6481459053666924,0.042894985526800156,0.47390589118003845,0.0533471405506134,0.5148309469223022,3.3975296020507812,0.4890105724334717,,,,,,,
10023344000.0,72.51,0.28999999165534973,12495335936.0,1228.909814500445,186.0,0.0035404935479164124,765952.0,1362.186865568161,1.607047828144914e-14,0.0,2.390692710876465,-0.023906931281089783,0.028983337804675102,-0.023906925693154335,-6.51925802230835e-09,0.0,0.04233555495738983,0.23704029619693756,0.8399767022190254,-0.039542071521282196,0.5871772766113281,0.0027934852987527847,0.5925575494766235,3.333035469055176,0.48892903327941895,,,,,,,
10023344000.0,74.35,0.3400000035762787,12495335936.0,1237.3420267715894,187.0,0.0020037710200995207,770048.0,1365.4971871376038,1.6679366221517e-14,0.0,2.360158920288086,-0.02360159531235695,0.04744809865951538,-0.023601587861776352,-7.450580596923828e-09,0.0,0.018396925181150436,0.30753999948501587,0.8177115167714961,-0.0993942990899086,0.7374075651168823,-0.08099737763404846,0.7203141450881958,3.310321569442749,0.4888293743133545,,,,,,,
10023344000.0,74.13,0.18000000715255737,12495335936.0,1200.9318396088092,188.0,0.0012344730785116553,774144.0,1368.9078719615936,1.851123421214851e-14,0.0,2.3177237510681152,-0.023177243769168854,0.05542906001210213,-0.023177236318588257,-7.450580596923828e-09,0.0,0.053412020206451416,0.32868167757987976,0.8517133266114336,-0.19927066564559937,0.8154712915420532,-0.14585863053798676,0.8535411357879639,3.410684823989868,0.4888033866882324,,,,,,,
10023344000.0,73.84,0.44999998807907104,12495335936.0,1238.631552901073,189.0,0.005405650474131107,778240.0,1372.2147471904755,1.8797463585684682e-14,0.0,2.314692974090576,-0.023146947845816612,0.05493450537323952,-0.02314692921936512,-1.862645149230957e-08,0.0,0.05238540470600128,0.32733917236328125,0.7456713929758211,-0.0718180388212204,0.7152488827705383,-0.019432617351412773,0.6490831971168518,3.306875228881836,0.4889678955078125,,,,,,,
10023344000.0,79.17,0.7599999904632568,12495335936.0,1228.8714885337836,190.0,0.005879151169210672,782336.0,1375.5478866100311,1.9312676458049793e-14,0.0,2.3350353240966797,-0.023350346833467484,0.03341636806726456,-0.02335035242140293,5.587935447692871e-09,0.0,0.07589413970708847,0.24715931713581085,0.7946574268509933,-0.01770179532468319,0.5290398597717285,0.05819234251976013,0.5454280972480774,3.333139419555664,0.489011287689209,,,,,,,
10023344000.0,78.01,0.25999999046325684,12495335936.0,1233.378903417297,191.0,0.00015471037477254868,786432.0,1378.868844985962,2.2263441090686342e-14,0.0,2.191115379333496,-0.021911153569817543,0.09053519368171692,-0.021911153569817543,0.0,0.0,-0.02277768775820732,0.424965500831604,0.7362225205264703,-0.0430777370929718,0.5953502655029297,-0.06585542112588882,0.8274366855621338,3.320958375930786,0.489227294921875,,,,,,,
,,,,,,,,,,,,,,,,,,,,,,,,,,0.011111813597381115,0.06324483454227448,0.05166512355208397,0.011111813597381115,0.06324483454227448,0.05166512355208397,
,,,,,,,,,,,,,,,,,,,,,,,,,,0.005521512124687433,0.05030541121959686,0.046007052063941956,0.005521512124687433,0.05030541121959686,0.046007052063941956,
,,,,,,,,,,,,,,,,,,,,,,,,,,0.0060927229933440685,0.047545503824949265,0.044650398194789886,0.0060927229933440685,0.047545503824949265,0.044650398194789886,
,,,,,,,,,,,,,,,,,,,,,,,,,,0.004057996440678835,0.043905772268772125,0.03981650620698929,0.004057996440678835,0.043905772268772125,0.03981650620698929,
,,,,,,,,,,,,,,,,,,,,,,,,,,0.004595928359776735,0.043001722544431686,0.03973625972867012,0.004595928359776735,0.043001722544431686,0.03973625972867012,
,,,,,,,,,,,,,,,,,,,,,,,,,,0.004290679935365915,0.04062487557530403,0.03786369413137436,0.004290679935365915,0.04062487557530403,0.03786369413137436,
,,,,,,,,,,,,,,,,,,,,,,,,,,,,,,,,-0.89
10023344000.0,76.03,0.10999999940395355,12293103616.0,27.492002381190392,192.0,0.0009285061387345195,790528.0,1527.8576288223267,2.014013955609073e-14,0.0,2.21439790725708,-0.022143971174955368,0.07957658916711807,-0.022143978625535965,8.381903171539307e-09,0.0,0.021974030882120132,0.39838308095932007,0.6909246393366735,-0.04768333211541176,0.5998401641845703,-0.025709303095936775,0.7165865898132324,148.98878383636475,0.5131211280822754,,,,,,,
10023344000.0,73.44,0.1899999976158142,12495335936.0,1242.8978974029892,193.0,0.002324057510122657,794624.0,1531.1531529426575,2.040034807748725e-14,0.0,2.251558303833008,-0.022515589371323586,0.06216619163751602,-0.02251558192074299,-7.450580596923828e-09,0.0,0.03540342301130295,0.35086897015571594,0.6539055938974774,-0.05095338076353073,0.4919842481613159,-0.015549956820905209,0.5964137315750122,3.2955241203308105,0.48870277404785156,,,,,,,
10023344000.0,74.38,0.23999999463558197,12495335936.0,1243.4054270789998,194.0,0.002480119466781616,798720.0,1534.447331905365,1.9881665758170186e-14,0.0,2.2759695053100586,-0.02275969460606575,0.0627097487449646,-0.02275969460606575,0.0,0.0,0.013560016639530659,0.35392966866493225,0.6636840116195024,0.040140558034181595,0.4767598807811737,0.05370057374238968,0.6102997660636902,3.2941789627075195,0.48903441429138184,,,,,,,
10023344000.0,78.19,0.4099999964237213,12495335936.0,1208.0632849966046,195.0,0.0029493942856788635,802816.0,1537.837882757187,2.1165361130393023e-14,0.0,2.249567985534668,-0.022495681419968605,0.04097719490528107,-0.022495679557323456,-1.862645149230957e-09,0.0,0.04038127511739731,0.28344905376434326,0.58159117136288,0.05357755720615387,0.39175477623939514,0.09395883977413177,0.4382022023200989,3.3905508518218994,0.4891197681427002,,,,,,,
10023344000.0,79.48,0.6100000143051147,12495335936.0,1218.7416066513435,196.0,0.007304075639694929,806912.0,1541.1987264156342,2.164067536281067e-14,0.0,2.211496353149414,-0.022114958614110947,0.038242436945438385,-0.022114962339401245,4.6566128730773926e-09,0.0,0.0815276950597763,0.26430127024650574,0.6555422021707874,0.0514243058860302,0.42358967661857605,0.1329520046710968,0.45033037662506104,3.3608436584472656,0.4888033866882324,,,,,,,
10023344000.0,81.24,0.8199999928474426,12495335936.0,1254.3283370334354,197.0,0.004824432078748941,811008.0,1544.4642190933228,2.1843638009499955e-14,0.0,2.249429225921631,-0.02249431610107422,0.037689656019210815,-0.02249429188668728,-2.3748725652694702e-08,0.0,0.06334987282752991,0.2671769857406616,0.7839106013922686,-0.023674989119172096,0.5611961483955383,0.03967489302158356,0.5747544169425964,3.2654926776885986,0.48915576934814453,,,,,,,
10023344000.0,80.14,0.47999998927116394,12495335936.0,1255.630036828684,198.0,0.004207828547805548,815104.0,1547.7263264656067,2.1560878082915735e-14,0.0,2.2470765113830566,-0.022470757365226746,0.03203016519546509,-0.022470764815807343,6.984919309616089e-09,0.0,0.022587597370147705,0.25212228298187256,0.8369571885768929,0.016839709132909775,0.5727956891059875,0.03942730277776718,0.6243964433670044,3.2621073722839355,0.4888474941253662,,,,,,,
10023344000.0,79.48,0.49000000953674316,12495335936.0,1252.0307710403806,199.0,0.004212472587823868,819200.0,1550.9978115558624,2.4282659216723346e-14,0.0,2.1428470611572266,-0.02142847701907158,0.0296398364007473,-0.021428469568490982,-6.51925802230835e-09,0.0,0.03652271255850792,0.24074865877628326,0.7955252971943811,0.042623743414878845,0.5138030648231506,0.07914645224809647,0.5324073433876038,3.2714850902557373,0.4894840717315674,,,,,,,
10023344000.0,79.5,0.6600000262260437,12495335936.0,1255.6523374789422,200.0,0.00640645157545805,823296.0,1554.2598609924316,2.3822957495589492e-14,0.0,2.1325364112854004,-0.021325362846255302,0.018468081951141357,-0.021325362846255302,0.0,0.0,0.05110611021518707,0.1852908879518509,0.8415420471182848,0.1035226508975029,0.44666576385498047,0.15462875366210938,0.46547573804855347,3.262049436569214,0.5175533294677734,,,,,,,
10023344000.0,81.03,0.6499999761581421,12495335936.0,1246.041028715517,201.0,0.003128900658339262,827392.0,1557.547072172165,2.2246093855926574e-14,0.0,2.2255492210388184,-0.02225549705326557,0.04791456460952759,-0.022255491465330124,-5.587935447692871e-09,0.0,-0.01295582763850689,0.3093293309211731,0.7420216907558574,0.0748855471611023,0.5010583996772766,0.061929721385240555,0.6090170741081238,3.2872111797332764,0.489046573638916,,,,,,,
10023344000.0,82.59,0.5,12495335936.0,1233.7094488716534,202.0,0.00563823152333498,831488.0,1560.8671407699585,2.2773449792623524e-14,0.0,2.2296667098999023,-0.02229667827486992,0.029547352343797684,-0.022296667098999023,-1.210719347000122e-08,0.0,0.0371319055557251,0.2402707189321518,0.8036835505878999,0.13682346045970917,0.46601760387420654,0.17395535111427307,0.5422786474227905,3.320068597793579,0.48908400535583496,,,,,,,
10023344000.0,81.73,0.5600000023841858,12495335936.0,1277.4396333794693,203.0,0.0034491633996367455,835584.0,1564.0735545158386,2.4320823133194835e-14,0.0,2.209338426589966,-0.022093376144766808,0.04406348615884781,-0.022093383595347404,7.450580596923828e-09,0.0,0.01006709598004818,0.29672735929489136,0.7050705789178495,0.10567738115787506,0.4364258348941803,0.11574447900056839,0.5463846921920776,3.206413745880127,0.48930883407592773,,,,,,,
10023344000.0,81.42,0.6399999856948853,12495335936.0,1242.6232558206818,204.0,0.002982459031045437,839680.0,1567.3698070049286,2.162853229847883e-14,0.0,2.2705576419830322,-0.022705581039190292,0.04311198741197586,-0.022705575451254845,-5.587935447692871e-09,0.0,-0.02474352903664112,0.29263055324554443,0.696154093081584,0.16128835082054138,0.3951508700847626,0.13654480874538422,0.5308758020401001,3.296252489089966,0.4888768196105957,,,,,,,
10023344000.0,83.53,0.2800000011920929,12495335936.0,1259.2717471949472,205.0,0.0018844992155209184,843776.0,1570.6224806308746,2.246640373737563e-14,0.0,2.2634665966033936,-0.022634664550423622,0.07155068218708038,-0.022634664550423622,0.0,0.0,-0.003930063918232918,0.37831321358680725,0.5832671805004547,0.1944015920162201,0.3991296887397766,0.19047154486179352,0.5860337018966675,3.252673625946045,0.4889829158782959,,,,,,,
10023344000.0,84.62,0.38999998569488525,12495335936.0,1267.8800068634307,206.0,0.00738843297585845,847872.0,1573.8530702590942,2.204660065618924e-14,0.0,2.2884771823883057,-0.02288476750254631,0.035330355167388916,-0.02288477122783661,3.725290298461914e-09,0.0,0.044317226856946945,0.26213255524635315,0.7116575538546475,0.1957074999809265,0.4568440616130829,0.24002473056316376,0.4881649911403656,3.2305896282196045,0.4888029098510742,,,,,,,
10023344000.0,87.08,0.9300000071525574,12495335936.0,1269.692424202,207.0,0.005662734154611826,851968.0,1577.0790483951569,2.360091289066446e-14,0.0,2.2747292518615723,-0.02274729311466217,0.07227820158004761,-0.02274729125201702,-9.313225746154785e-10,0.0,-0.0037000197917222977,0.38023412227630615,0.5666390130241872,0.26280295848846436,0.46841007471084595,0.2591029405593872,0.5775986909866333,3.225978136062622,0.4889960289001465,,,,,,,
10023344000.0,82.03,0.17000000178813934,12495335936.0,1253.9065679221108,208.0,-0.002519195433706045,856064.0,1580.3456394672394,2.284110400818662e-14,0.0,2.2932307720184326,-0.022932307794690132,0.08051416277885437,-0.022932307794690132,0.0,0.0,-0.09981095045804977,0.38871967792510986,0.6795747301228026,0.16668474674224854,0.46367666125297546,0.06687377393245697,0.6867096424102783,3.2665910720825195,0.4890298843383789,,,,,,,
10023344000.0,76.52,0.10000000149011612,12495335936.0,1228.3313116476152,209.0,0.00583106093108654,860160.0,1583.6802446842194,2.1980681164102123e-14,0.0,2.323378562927246,-0.02323378250002861,0.0525231808423996,-0.02323378436267376,1.862645149230957e-09,0.0,-0.022471433505415916,0.323368102312088,0.5529162981846611,0.2954602539539337,0.4325021207332611,0.27298885583877563,0.4836183488368988,3.3346052169799805,0.48883819580078125,,,,,,,
10023344000.0,81.43,0.7799999713897705,12495335936.0,1242.8864778058069,210.0,0.00615237420424819,864256.0,1586.9757990837097,2.2972942992360856e-14,0.0,2.282926559448242,-0.022829264402389526,0.03853725269436836,-0.022829264402389526,0.0,0.0,0.007482599467039108,0.27755600214004517,0.749763974590088,0.22698856890201569,0.4696018397808075,0.2344711720943451,0.554850161075592,3.2955543994903564,0.488933801651001,,,,,,,
10023344000.0,82.42,0.7099999785423279,12495335936.0,1244.4191168859616,211.0,0.006474805064499378,868352.0,1590.2672946453094,2.4180310531640714e-14,0.0,2.2759063243865967,-0.022759053856134415,0.05635497719049454,-0.02275906316936016,9.313225746154785e-09,0.0,-0.0218244306743145,0.33505383133888245,0.5160615745640789,0.23266778886318207,0.38048121333122253,0.21084336936473846,0.48163658380508423,3.2914955615997314,0.48901820182800293,,,,,,,
10023344000.0,77.14,0.38999998569488525,12495335936.0,1254.2895997135702,212.0,0.0006323866546154022,872448.0,1593.532888174057,2.4419702371325513e-14,0.0,2.1967527866363525,-0.02196752279996872,0.054182618856430054,-0.021967526525259018,3.725290298461914e-09,0.0,-0.02324521355330944,0.3284071087837219,0.7344307461685022,0.07854209840297699,0.5008374452590942,0.0552968867123127,0.6372702717781067,3.2655935287475586,0.4905245304107666,,,,,,,
10023344000.0,76.68,0.3100000023841858,12495335936.0,1222.085688207715,213.0,0.0053837113082408905,876544.0,1596.8845353126526,2.3153354233862444e-14,0.0,2.332547664642334,-0.023325469344854355,0.023860642686486244,-0.023325476795434952,8.381903171539307e-09,0.0,-0.008188455365598202,0.21832513809204102,0.7647015423211029,0.23479771614074707,0.3588543236255646,0.2266092598438263,0.4500846862792969,3.351647138595581,0.48921728134155273,,,,,,,
10023344000.0,78.77,0.7200000286102295,12495335936.0,1245.333258139181,214.0,0.007292448543012142,880640.0,1600.1736147403717,2.307355695396751e-14,0.0,2.3372740745544434,-0.023372745141386986,0.04319187253713608,-0.023372739553451538,-5.587935447692871e-09,0.0,0.000650390051305294,0.2939462959766388,0.6886842583367876,0.23342035710811615,0.42761221528053284,0.23407074809074402,0.5268263220787048,3.289079427719116,0.5114171504974365,,,,,,,
10023344000.0,78.67,0.5899999737739563,12495335936.0,1253.1753929332915,215.0,0.002379469573497772,884736.0,1603.4421117305756,2.331815296408024e-14,0.0,2.3014578819274902,-0.023014575242996216,0.07665747404098511,-0.023014578968286514,2.7939677238464355e-09,0.0,-0.019213629886507988,0.39113056659698486,0.7131680973325337,0.09898199886083603,0.5711809396743774,0.07976836711168289,0.730311393737793,3.2684969902038574,0.4889078140258789,,,,,,,
10023344000.0,77.45,0.4399999976158142,12495335936.0,1215.2506189832081,216.0,0.00635142158716917,888832.0,1606.812609910965,2.2261706367210365e-14,0.0,2.371399402618408,-0.02371399663388729,0.041336044669151306,-0.023713992908596992,-3.725290298461914e-09,0.0,0.02622990682721138,0.2863635718822479,0.7726751797681222,0.09745447337627411,0.5198958516120911,0.12368438392877579,0.600612461566925,3.3704981803894043,0.48926568031311035,,,,,,,
10023344000.0,77.71,0.8399999737739563,12495335936.0,1241.042945180592,217.0,0.007943820208311081,892928.0,1610.11305975914,2.4303475898435067e-14,0.0,2.3709774017333984,-0.023709766566753387,0.04501781612634659,-0.023709774017333984,7.450580596923828e-09,0.0,0.027188561856746674,0.2988615334033966,0.7633799739157637,0.28892335295677185,0.4682934582233429,0.3161119222640991,0.6143902540206909,3.300449848175049,0.4891242980957031,,,,,,,
10023344000.0,81.06,1.1299999952316284,12495335936.0,1223.5321337024563,218.0,0.008904348127543926,897024.0,1613.4607446193695,2.31342722756267e-14,0.0,2.354470729827881,-0.023544713854789734,0.05480358749628067,-0.023544706404209137,-7.450580596923828e-09,0.0,0.04691481590270996,0.32776880264282227,0.6864081985637027,0.19972483813762665,0.4988800287246704,0.2466396689414978,0.5853091478347778,3.347684860229492,0.4892618656158447,,,,,,,
10023344000.0,78.77,0.8700000047683716,12495335936.0,1211.2940268013888,219.0,0.004773356951773167,901120.0,1616.842252254486,2.4804810982992365e-14,0.0,2.357308864593506,-0.023573078215122223,0.06539365649223328,-0.02357308752834797,9.313225746154785e-09,0.0,0.003095913678407669,0.3616761863231659,0.7680919414404481,0.1694599688053131,0.6016883254051208,0.17255587875843048,0.751038134098053,3.381507635116577,0.48960280418395996,,,,,,,
10023344000.0,79.56,0.6499999761581421,12495335936.0,1190.4312424752982,220.0,0.0049391984939575195,905216.0,1620.2830221652985,2.3142945893006583e-14,0.0,2.3796465396881104,-0.02379646524786949,0.036261990666389465,-0.02379646524786949,0.0,0.0,-0.00419007521122694,0.26930302381515503,0.724812917551285,0.29230815172195435,0.42360785603523254,0.28811806440353394,0.513366162776947,3.440769910812378,0.48891353607177734,,,,,,,
10023344000.0,81.82,0.7200000286102295,12495335936.0,1227.640879580661,221.0,0.006376748438924551,909312.0,1623.6195027828217,2.35905045498086e-14,0.0,2.396994113922119,-0.023969944566488266,0.08400268107652664,-0.023969940841197968,-3.725290298461914e-09,0.0,-0.02932688593864441,0.4088839888572693,0.6577457815923373,0.28796622157096863,0.5420182943344116,0.2586393356323242,0.6989170908927917,3.3364806175231934,0.4888463020324707,,,,,,,
10023344000.0,78.37,0.5799999833106995,12495335936.0,1229.8272740971563,222.0,0.0006381113780662417,913408.0,1626.9500517845154,2.319845704423784e-14,0.0,2.426252841949463,-0.02426251210272312,0.11543487012386322,-0.024262527003884315,1.4901161193847656e-08,0.0,-0.08493153750896454,0.47298097610473633,0.6651857589961225,0.2521282434463501,0.574590802192688,0.16719669103622437,0.8174132704734802,3.3305490016937256,0.48905277252197266,,,,,,,
10023344000.0,77.26,0.1599999964237213,12495335936.0,1257.5073455676993,223.0,0.00095756771042943,917504.0,1630.2072892189026,2.2773449792623524e-14,0.0,2.4128177165985107,-0.024128179997205734,0.10152886807918549,-0.024128176271915436,-3.725290298461914e-09,0.0,-0.03451487794518471,0.44935038685798645,0.7332547410776392,0.0788789838552475,0.7733330726623535,0.04436410963535309,0.8700351119041443,3.257237434387207,0.4890317916870117,,,,,,,
,,,,,,,,,,,,,,,,,,,,,,,,,,0.007294804323464632,0.06547824293375015,0.05683848261833191,0.007294804323464632,0.06547824293375015,0.05683848261833191,
,,,,,,,,,,,,,,,,,,,,,,,,,,0.004775782581418753,0.053551677614450455,0.049005113542079926,0.004775782581418753,0.053551677614450455,0.049005113542079926,
,,,,,,,,,,,,,,,,,,,,,,,,,,0.004216255620121956,0.05020696297287941,0.047610942274332047,0.004216255620121956,0.05020696297287941,0.047610942274332047,
,,,,,,,,,,,,,,,,,,,,,,,,,,0.003818315686658025,0.04716813564300537,0.04410947859287262,0.003818315686658025,0.04716813564300537,0.04410947859287262,
,,,,,,,,,,,,,,,,,,,,,,,,,,0.0034985148813575506,0.0450279526412487,0.0421261191368103,0.0034985148813575506,0.0450279526412487,0.0421261191368103,
,,,,,,,,,,,,,,,,,,,,,,,,,,0.00364663521759212,0.043529216200113297,0.04137962684035301,0.00364663521759212,0.043529216200113297,0.04137962684035301,
,,,,,,,,,,,,,,,,,,,,,,,,,,,,,,,,-1.04
10023344000.0,79.18,0.28999999165534973,12293103616.0,27.387478205506987,224.0,0.0073461104184389114,921600.0,1779.7646880149841,1.986952269383835e-14,0.0,2.404810667037964,-0.024048110470175743,0.06005473807454109,-0.024048106744885445,-4.190951585769653e-09,0.0,0.0496852844953537,0.3430299758911133,0.7264637306594687,0.1723729968070984,0.5773718357086182,0.2220582664012909,0.6558802723884583,149.55739879608154,0.5154848098754883,,,,,,,
10023344000.0,83.46,0.9100000262260437,12495335936.0,1221.4529716051259,225.0,0.009429477155208588,925696.0,1783.1180713176727,1.841755914444576e-14,0.0,2.425358295440674,-0.024253593757748604,0.029368413612246513,-0.02425358258187771,-1.1175870895385742e-08,0.0,0.04671464115381241,0.23784106969833374,0.8533285060597324,0.1578671932220459,0.5721643567085266,0.2045818269252777,0.6210319995880127,3.3533833026885986,0.48929333686828613,,,,,,,
10023344000.0,81.79,1.1100000143051147,12495335936.0,1225.24278848554,226.0,0.00767912995070219,929792.0,1786.4610822200775,2.0896478991616618e-14,0.0,2.3794896602630615,-0.023794908076524734,0.032587844878435135,-0.02379489690065384,-1.1175870895385742e-08,0.0,0.020019061863422394,0.25454026460647583,0.8411297916685867,0.18550047278404236,0.5441747903823853,0.20551952719688416,0.6386092901229858,3.343010902404785,0.4889225959777832,,,,,,,
10023344000.0,75.82,1.0099999904632568,12495335936.0,1217.213225356204,227.0,0.008007095195353031,933888.0,1789.8261458873749,2.1017909634934995e-14,0.0,2.3579225540161133,-0.023579217493534088,0.04298488050699234,-0.023579224944114685,7.450580596923828e-09,0.0,0.049043286591768265,0.28911057114601135,0.7529950216721387,0.12030871212482452,0.5584138035774231,0.1693519949913025,0.5817161798477173,3.3650636672973633,0.48901891708374023,,,,,,,
10023344000.0,78.15,0.7599999904632568,12495335936.0,1277.137553445231,228.0,0.0022438126616179943,937984.0,1793.0333180427551,2.189567971377926e-14,0.0,2.3701698780059814,-0.02370169758796692,0.05251245200634003,-0.02370169758796692,0.0,0.0,-0.006325089372694492,0.3240532875061035,0.8176092686807305,0.05109317600727081,0.6400225758552551,0.044768087565898895,0.7587785124778748,3.207172155380249,0.48917675018310547,,,,,,,
10023344000.0,82.49,0.3499999940395355,12495335936.0,1248.2159700350323,229.0,0.0030488716438412666,942080.0,1796.314801454544,2.0823620605625592e-14,0.0,2.332186698913574,-0.02332185208797455,0.04211772605776787,-0.023321866989135742,1.4901161193847656e-08,0.0,-0.013274735771119595,0.28996509313583374,0.7769169844560371,0.2072254717350006,0.5346548557281494,0.19395074248313904,0.6139209866523743,3.2814834117889404,0.4888169765472412,,,,,,,
10023344000.0,76.07,0.4099999964237213,12495335936.0,1244.0574935627862,230.0,0.0038542042020708323,946176.0,1799.6072537899017,2.0435042547006788e-14,0.0,2.3750596046447754,-0.02375059947371483,0.054412949830293655,-0.02375059574842453,-3.725290298461914e-09,0.0,-0.02066965028643608,0.32927975058555603,0.8041823388255454,0.11023631691932678,0.6468029022216797,0.0895666629076004,0.7441133260726929,3.292452335357666,0.4891035556793213,,,,,,,
10023344000.0,77.88,0.46000000834465027,12495335936.0,1284.5686896185498,231.0,0.004822927992790937,950272.0,1802.7958726882935,2.2169766022983595e-14,0.0,2.294161558151245,-0.022941619157791138,0.05985448136925697,-0.02294161543250084,-2.7939677238464355e-09,0.0,-0.023419618606567383,0.34523844718933105,0.7986712408731829,0.15064769983291626,0.728083074092865,0.12722808122634888,0.7694249153137207,3.1886188983917236,0.4891648292541504,,,,,,,
10023344000.0,79.33,0.6100000143051147,12495335936.0,1260.1098683343862,232.0,0.004828745033591986,954368.0,1806.0463829040527,2.200323256928982e-14,0.0,2.257235527038574,-0.0225723497569561,0.026177452877163887,-0.022572355344891548,6.51925802230835e-09,0.0,-0.003914779517799616,0.22880639135837555,0.846373224385404,0.16812843084335327,0.52887362241745,0.1642136573791504,0.5837604999542236,3.2505102157592773,0.5121622085571289,,,,,,,
10023344000.0,80.19,0.7799999713897705,12495335936.0,1287.5446481989788,233.0,0.009827367961406708,958464.0,1809.2276318073273,2.220446049250313e-14,0.0,2.327472686767578,-0.023274719715118408,0.05362406000494957,-0.023274727165699005,8.381903171539307e-09,0.0,0.04307715967297554,0.32468169927597046,0.6558070140657242,0.2786502242088318,0.5738794803619385,0.3217273950576782,0.5534225106239319,3.181248903274536,0.48915982246398926,,,,,,,
10023344000.0,83.03,0.9100000262260437,12495335936.0,1281.17407626683,234.0,0.00451311282813549,962560.0,1812.424699306488,2.1012705464507064e-14,0.0,2.3556158542633057,-0.023556148633360863,0.028763655573129654,-0.02355615794658661,9.313225746154785e-09,0.0,0.02207060344517231,0.23886007070541382,0.9236089119375782,0.07549688220024109,0.8135796189308167,0.09756749868392944,0.8642158508300781,3.1970674991607666,0.4889543056488037,,,,,,,
10023344000.0,87.05,0.8899999856948853,12495335936.0,1259.7460898628165,235.0,0.00709449453279376,966656.0,1815.6761481761932,2.20795604022328e-14,0.0,2.3306798934936523,-0.023306798189878464,0.033094022423028946,-0.023306798189878464,2.3283064365386963e-10,0.0,0.005484247580170631,0.2572433054447174,0.8798769338475223,0.2584155201911926,0.6698200702667236,0.2638997435569763,0.742216944694519,3.2514488697052,0.4897427558898926,,,,,,,
10023344000.0,87.49,0.8100000023841858,12495335936.0,1236.6784625191074,236.0,0.0074256109073758125,970752.0,1818.9882459640503,2.1160156959965093e-14,0.0,2.342294692993164,-0.02342294529080391,0.0527222603559494,-0.02342294715344906,1.862645149230957e-09,0.0,-0.00781296007335186,0.32466787099838257,0.708616945467857,0.20407623052597046,0.5702018737792969,0.19626328349113464,0.6014605760574341,3.3120977878570557,0.4889397621154785,,,,,,,
10023344000.0,80.75,0.6100000143051147,12495335936.0,1257.1725742275319,237.0,0.0032300290185958147,974848.0,1822.2463507652283,2.3011106908832346e-14,0.0,2.2805352210998535,-0.02280535362660885,0.05793623626232147,-0.0228053517639637,-1.862645149230957e-09,0.0,-0.032520730048418045,0.33888480067253113,0.847156453900207,0.03934250399470329,0.7949360609054565,0.006821766495704651,0.8668193221092224,3.2581048011779785,0.4890463352203369,,,,,,,
10023344000.0,80.4,0.5799999833106995,12495335936.0,1281.3354678148157,238.0,0.006464834325015545,978944.0,1825.443015575409,2.3408358584831035e-14,0.0,2.335698127746582,-0.023356975987553596,0.03580696880817413,-0.023356981575489044,5.587935447692871e-09,0.0,0.00394954439252615,0.2676113247871399,0.8153593752168429,0.29898449778556824,0.5534983277320862,0.30293405055999756,0.6227888464927673,3.196664810180664,0.48891520500183105,,,,,,,
10023344000.0,80.7,0.7900000214576721,12495335936.0,1293.027097628805,239.0,0.005015621893107891,983040.0,1828.6107759475708,2.4947058308022463e-14,0.0,2.281557083129883,-0.02281557209789753,0.048685211688280106,-0.02281557023525238,-1.862645149230957e-09,0.0,0.0005878009833395481,0.31207987666130066,0.7042933581459332,0.3072505593299866,0.5143431425094604,0.3078383803367615,0.5738987326622009,3.1677603721618652,0.48942017555236816,,,,,,,
10023344000.0,82.05,0.6700000166893005,12495335936.0,1268.5763624912931,240.0,0.00582725927233696,987136.0,1831.839592218399,2.3588769826332623e-14,0.0,2.304938793182373,-0.023049382492899895,0.06367424130439758,-0.023049388080835342,5.587935447692871e-09,0.0,-0.01115541160106659,0.35672834515571594,0.7705379655113309,0.23738344013690948,0.6499117612838745,0.2262280434370041,0.7447015047073364,3.228816270828247,0.48906826972961426,,,,,,,
10023344000.0,83.1,0.8600000143051147,12495335936.0,1251.1626276188315,241.0,0.009398729540407658,991232.0,1835.1133472919464,2.4659094211010313e-14,0.0,2.321356773376465,-0.023213563486933708,0.03271535038948059,-0.023213567212224007,3.725290298461914e-09,0.0,0.04106656461954117,0.2525070607662201,0.6619621995348638,0.2512607276439667,0.43893709778785706,0.29232728481292725,0.4343010187149048,3.2737550735473633,0.48917698860168457,,,,,,,
10023344000.0,75.5,1.0,12495335936.0,1268.5905072377404,242.0,0.00778419803828001,995328.0,1838.3421275615692,2.327998904760875e-14,0.0,2.364299774169922,-0.0236430075019598,0.054033249616622925,-0.023642996326088905,-1.1175870895385742e-08,0.0,0.0028568056877702475,0.328762412071228,0.8193836840092188,0.1696101427078247,0.6848279237747192,0.1724669486284256,0.7735772728919983,3.2287802696228027,0.4889495372772217,,,,,,,
10023344000.0,78.22,0.4099999964237213,12495335936.0,1271.7310311322572,243.0,-0.0008112272480502725,999424.0,1841.5629343986511,2.3569687868096878e-14,0.0,2.353154182434082,-0.023531541228294373,0.09088698774576187,-0.023531541228294373,0.0,0.0,-0.031621336936950684,0.42522725462913513,0.7799808644811839,0.1134144738316536,0.7745718955993652,0.08179312944412231,0.9065481424331665,3.220806837081909,0.48883581161499023,,,,,,,
10023344000.0,83.95,0.44999998807907104,12495335936.0,1269.9390774982896,244.0,0.008116809651255608,1003520.0,1844.7882859706879,2.3876733923344773e-14,0.0,2.384580612182617,-0.02384580671787262,0.04574861377477646,-0.02384580485522747,-2.3283064365386963e-09,0.0,-0.0037115560844540596,0.3024992346763611,0.7309411439492308,0.3353661000728607,0.49322274327278137,0.33165454864501953,0.5831773281097412,3.225351572036743,0.4889638423919678,,,,,,,
10023344000.0,83.06,0.8500000238418579,12495335936.0,1245.2365847205842,245.0,0.004874113015830517,1007616.0,1848.0776207447052,2.3573157315048832e-14,0.0,2.3496243953704834,-0.02349623665213585,0.05224738270044327,-0.023496244102716446,7.450580596923828e-09,0.0,-0.03335859999060631,0.32156991958618164,0.7509317517071082,0.2041078507900238,0.536575198173523,0.1707492470741272,0.6443416476249695,3.289334774017334,0.48921847343444824,,,,,,,
10023344000.0,84.78,0.8299999833106995,12495335936.0,1283.0763763376808,246.0,0.007966785691678524,1011712.0,1851.2699482440948,2.259650799807389e-14,0.0,2.3758201599121094,-0.02375819906592369,0.051812656223773956,-0.02375820092856884,9.313225746154785e-10,0.0,0.03418898209929466,0.3201272189617157,0.8193358630517069,0.267930269241333,0.6750997304916382,0.30211925506591797,0.7531589269638062,3.1923274993896484,0.48911285400390625,,,,,,,
10023344000.0,87.08,1.1799999475479126,12495335936.0,1206.5215573966268,247.0,0.011392095126211643,1015808.0,1854.6648316383362,2.317764036252612e-14,0.0,2.3846938610076904,-0.02384694665670395,0.04955277591943741,-0.023846937343478203,-9.313225746154785e-09,0.0,0.04843462258577347,0.3111000955104828,0.7595557331957212,0.3176279664039612,0.6618573665618896,0.36606261134147644,0.634443461894989,3.394883394241333,0.5024678707122803,,,,,,,
10023344000.0,84.53,1.090000033378601,12495335936.0,1232.221797021974,248.0,0.005537254270166159,1019904.0,1857.9889085292816,2.329213211194059e-14,0.0,2.3764054775238037,-0.02376404218375683,0.05513836443424225,-0.023764053359627724,1.1175870895385742e-08,0.0,-0.02481457218527794,0.33119139075279236,0.7578347376265484,0.2653912305831909,0.5634400844573975,0.24057668447494507,0.6730124950408936,3.3240768909454346,0.4892153739929199,,,,,,,
10023344000.0,85.77,1.190000057220459,12495335936.0,1219.4075212890443,249.0,0.012543795630335808,1024000.0,1861.347916841507,2.193384363025075e-14,0.0,2.3665456771850586,-0.023665448650717735,0.03568612039089203,-0.023665456101298332,7.450580596923828e-09,0.0,0.0453336276113987,0.26331356167793274,0.8028296393652442,0.30728423595428467,0.5347023010253906,0.35261785984039307,0.5929968357086182,3.359008312225342,0.48901796340942383,,,,,,,
10023344000.0,86.94,1.2200000286102295,12495335936.0,1235.409343850261,250.0,0.006194238550961018,1028096.0,1864.6634171009064,2.2952126310649135e-14,0.0,2.3627877235412598,-0.023627877235412598,0.04628714919090271,-0.023627877235412598,0.0,0.0,-0.014352872036397457,0.30395862460136414,0.844310519052388,0.21289607882499695,0.6655596494674683,0.1985432207584381,0.7703442573547363,3.315500259399414,0.48932790756225586,,,,,,,
10023344000.0,86.02,0.8600000143051147,12495335936.0,1263.5021592960343,251.0,0.006200600415468216,1032192.0,1867.9052002429962,2.2749163663959848e-14,0.0,2.298208475112915,-0.02298208698630333,0.02314949780702591,-0.02298208512365818,-2.7939677238464355e-09,0.0,0.019926095381379128,0.21427354216575623,0.8336638651691615,0.18934732675552368,0.5065091848373413,0.20927342772483826,0.5253821015357971,3.2417831420898438,0.48904848098754883,,,,,,,
10023344000.0,75.94,0.49000000953674316,12495335936.0,1242.772922679838,252.0,0.002449694089591503,1036288.0,1871.201055765152,2.4355517602714372e-14,0.0,2.3085076808929443,-0.02308507263660431,0.08467163145542145,-0.023085076361894608,2.7939677238464355e-09,0.0,-0.033409200608730316,0.41020506620407104,0.6824836286002677,0.1338491439819336,0.6326520442962646,0.10043993592262268,0.727977454662323,3.2958555221557617,0.48924899101257324,,,,,,,
10023344000.0,75.44,0.4399999976158142,12495335936.0,1219.0414290623535,253.0,0.0062105050310492516,1040384.0,1874.5610728263855,2.373101715136272e-14,0.0,2.314893960952759,-0.02314893901348114,0.03666292876005173,-0.02314893901348114,0.0,0.0,0.0021055620163679123,0.27081236243247986,0.8705411776941401,0.18954452872276306,0.7005123496055603,0.19165009260177612,0.7526665925979614,3.3600170612335205,0.4889504909515381,,,,,,,
10023344000.0,80.77,0.7099999785423279,12495335936.0,1228.6945695935258,254.0,0.006215287372469902,1044480.0,1877.894692182541,2.6683516507475247e-14,0.0,2.2486863136291504,-0.0224868543446064,0.04500555992126465,-0.022486861795186996,6.51925802230835e-09,0.0,-0.022842325270175934,0.29918423295021057,0.7413489757939908,0.2331988513469696,0.5288364887237549,0.21035653352737427,0.5882766842842102,3.3336193561553955,0.4895477294921875,,,,,,,
