CpuMaxMemory,EpLenMean,EpRewMean,GpuMaxMemory,IPS_total,Iter,Misc/FrameRewMean,Misc/InteractCount,Misc/TimeElapsed,Opt/approxkl,Opt/clipfrac,Opt/entropy,Opt/loss_pi,Opt/loss_vf,Opt/negent,Opt/pg,Opt/pi_kl,VFStats/AdvMean,VFStats/AdvStd,VFStats/EV,VFStats/VpredMean,VFStats/VpredStd,VFStats/VtargMean,VFStats/VtargStd,del_time,wait_optimization,scaled/pol_distance,scaled/vf_aux,scaled/vf_true,unscaled/pol_distance,unscaled/vf_aux,unscaled/vf_true,EvalEpMean
3686740000.0,89.0,-2.8918919563293457,11965495808.0,2189.3098656558896,0.0,-0.016807977110147476,4096.0,1.8709092140197754,6.855627177060342e-15,0.0,2.7066805362701416,-0.027066797018051147,0.1962452232837677,-0.027066804468631744,8.381903171539307e-09,0.0,-0.24186471104621887,0.5779908895492554,0.002316060482997595,0.020290382206439972,0.016782090067863464,-0.2215743362903595,0.5786613821983337,1.8709092140197754,0.5184645652770996,,,,,,,
3737788000.0,84.36046511627907,-2.767441749572754,12031147008.0,2323.7898763958906,1.0,-0.01762595772743225,8192.0,3.633547067642212,8.097689185859736e-15,0.0,2.6996357440948486,-0.026996349915862083,0.1853407770395279,-0.02699635736644268,7.450580596923828e-09,0.0,-0.19744569063186646,0.5760015249252319,0.013848856725654946,-0.20312269032001495,0.02457178384065628,-0.4005683660507202,0.5800319314002991,1.7626378536224365,0.4894719123840332,,,,,,,
3787120000.0,79.31,-3.0999999046325684,12031147008.0,2314.3550085960487,2.0,-0.020146064460277557,12288.0,5.40337061882019,1.0352829704629585e-14,0.0,2.6786932945251465,-0.02678694948554039,0.19989727437496185,-0.026786932721734047,-1.7695128917694092e-08,0.0,-0.17004752159118652,0.6090722680091858,0.008035830043579995,-0.5191162824630737,0.059891313314437866,-0.6891638040542603,0.6115342974662781,1.7698235511779785,0.48952627182006836,,,,,,,
3836480000.0,80.19,-3.4200000762939453,12031147008.0,2299.8181394918593,3.0,-0.016697056591510773,16384.0,7.184381008148193,1.2961853812498703e-14,0.0,2.633366107940674,-0.026333674788475037,0.22237932682037354,-0.026333659887313843,-1.4901161193847656e-08,0.0,-0.0032175518572330475,0.6669759154319763,-0.006422521713343787,-1.054483413696289,0.13214397430419922,-1.0577008724212646,0.6648443937301636,1.781010389328003,0.4895014762878418,,,,,,,
3885584000.0,85.03,-2.9700000286102295,12031147008.0,2288.9136176342017,4.0,-0.011717796325683594,20480.0,8.973876237869263,1.469657728847551e-14,0.0,2.606407880783081,-0.026064090430736542,0.2876836955547333,-0.026064077392220497,-1.210719347000122e-08,0.0,0.17255455255508423,0.7387323975563049,-0.01927068544979771,-1.7430434226989746,0.20671172440052032,-1.5704888105392456,0.7317155599594116,1.7894952297210693,0.48932933807373047,,,,,,,
3934688000.0,86.61,-2.6600000858306885,12031147008.0,2287.406596941509,5.0,-0.018880311399698257,24576.0,10.76455044746399,1.3522169495239211e-14,0.0,2.608609199523926,-0.026086095720529556,0.2749882638454437,-0.026086091995239258,-3.725290298461914e-09,0.0,0.028760045766830444,0.7411366105079651,-0.042908412446846844,-1.4493992328643799,0.15202969312667847,-1.4206392765045166,0.7257300615310669,1.7906742095947266,0.48944783210754395,,,,,,,
3984056000.0,83.38,-2.9600000381469727,12031147008.0,2267.789004254843,6.0,-0.015724923461675644,28672.0,12.570714950561523,1.2281842209915794e-14,0.0,2.5993595123291016,-0.025993587449193,0.25247347354888916,-0.025993594899773598,7.450580596923828e-09,0.0,0.05464693158864975,0.70857834815979,-0.023473538134777927,-1.162935733795166,0.1276731789112091,-1.1082890033721924,0.7004057168960571,1.8061645030975342,0.4917123317718506,,,,,,,
4033156000.0,79.37,-2.890000104904175,12031147008.0,2237.31258737534,7.0,-0.016805261373519897,32768.0,14.401482820510864,1.1265294252993385e-14,0.0,2.608595371246338,-0.026085948571562767,0.21075725555419922,-0.026085952296853065,3.725290298461914e-09,0.0,-0.035356178879737854,0.6483572721481323,0.020820984806918297,-0.8890609741210938,0.1014997586607933,-0.9244171380996704,0.6552141904830933,1.8307678699493408,0.48946118354797363,,,,,,,
4082260000.0,75.79,-2.430000066757202,12031147008.0,2245.1029702494147,8.0,-0.016387566924095154,36864.0,16.225898027420044,1.1064066329780076e-14,0.0,2.6019740104675293,-0.026019740849733353,0.19914355874061584,-0.026019738987088203,-1.862645149230957e-09,0.0,-0.03613455966114998,0.6301414966583252,0.010346609211604463,-0.7440982460975647,0.09825097769498825,-0.7802327871322632,0.6334269642829895,1.8244152069091797,0.49001097679138184,,,,,,,
4131628000.0,78.26,-2.6700000762939453,12031147008.0,2295.1118399950196,9.0,-0.016778385266661644,40960.0,18.010560512542725,1.1466522176206695e-14,0.0,2.6173036098480225,-0.02617303654551506,0.20127536356449127,-0.02617303468286991,-1.862645149230957e-09,0.0,-0.1154065728187561,0.6239608526229858,0.016763851047237543,-0.6494238376617432,0.07947979867458344,-0.7648304104804993,0.6292575597763062,1.7846624851226807,0.48929452896118164,,,,,,,
4180732000.0,78.17,-2.7200000286102295,12031147008.0,2317.9866316726275,10.0,-0.015989141538739204,45056.0,19.777611255645752,1.1043249648068354e-14,0.0,2.5947489738464355,-0.02594747580587864,0.16775578260421753,-0.025947488844394684,1.30385160446167e-08,0.0,-0.027917159721255302,0.5786311030387878,0.050881367405486544,-0.6698180437088013,0.09635308384895325,-0.6977351903915405,0.5939385294914246,1.7670507431030273,0.48937201499938965,,,,,,,
4230100000.0,77.57,-2.049999952316284,12031147008.0,2269.000838797093,11.0,-0.007473984267562628,49152.0,21.58281111717224,1.1475195793586579e-14,0.0,2.6020944118499756,-0.026020944118499756,0.11639416962862015,-0.026020944118499756,0.0,0.0,0.05853588879108429,0.47897592186927795,0.10784986662642859,-0.6714192628860474,0.11585905402898788,-0.6128833293914795,0.5071011781692505,1.8051998615264893,0.489485502243042,,,,,,,
4279204000.0,79.46,-1.9600000381469727,12031147008.0,2294.9539461485892,12.0,-0.014122296124696732,53248.0,23.36759638786316,1.2424089534945892e-14,0.0,2.568800449371338,-0.025688007473945618,0.16291013360023499,-0.02568800374865532,-3.725290298461914e-09,0.0,-0.038854826241731644,0.5695522427558899,0.1428525932780793,-0.6759887933731079,0.1543702930212021,-0.7148436307907104,0.615185022354126,1.784785270690918,0.48949122428894043,,,,,,,
4328308000.0,75.25,-1.9600000381469727,12031147008.0,2282.3772806343727,13.0,-0.009465083479881287,57344.0,25.162216424942017,1.2587153541687712e-14,0.0,2.523090362548828,-0.025230899453163147,0.13512860238552094,-0.025230903178453445,3.725290298461914e-09,0.0,0.06036416068673134,0.5164092183113098,0.1288288146402975,-0.6983773708343506,0.18711620569229126,-0.6380132436752319,0.553276538848877,1.7946200370788574,0.48911380767822266,,,,,,,
4377676000.0,71.89,-1.659999966621399,12031147008.0,2162.5065812197336,14.0,-0.012161755934357643,61440.0,27.056314706802368,1.1993878112903644e-14,0.0,2.5123064517974854,-0.02512306347489357,0.15287423133850098,-0.02512306347489357,-4.656612873077393e-10,0.0,0.006131530739367008,0.5529788136482239,0.17510353118332878,-0.7141779661178589,0.23023666441440582,-0.7080464363098145,0.6088477373123169,1.8940982818603516,0.48943042755126953,,,,,,,
4426780000.0,75.74,-2.059999942779541,12031147008.0,2337.1144883292345,15.0,-0.015053071081638336,65536.0,28.808903217315674,1.2424089534945892e-14,0.0,2.482243776321411,-0.024822445586323738,0.17866569757461548,-0.02482243813574314,-7.450580596923828e-09,0.0,-0.07305711507797241,0.5933632850646973,0.029654805647259974,-0.6807236671447754,0.2340860664844513,-0.7537807822227478,0.6023619771003723,1.7525885105133057,0.48904871940612793,,,,,,,
4475884000.0,78.22,-2.5399999618530273,12031147008.0,2250.7703751295053,16.0,-0.0159577876329422,69632.0,30.628724575042725,1.3152673394856151e-14,0.0,2.4350783824920654,-0.02435077540576458,0.1950756311416626,-0.024350782856345177,7.450580596923828e-09,0.0,-0.0495755635201931,0.6227263808250427,0.14470946491431136,-0.7682235836982727,0.2764526307582855,-0.8177991509437561,0.6733493208885193,1.8198213577270508,0.48941731452941895,,,,,,,
4525252000.0,74.83,-2.6700000762939453,12031147008.0,2342.1301828034257,17.0,-0.017472751438617706,73728.0,32.37755990028381,1.4925560787304448e-14,0.0,2.364891767501831,-0.023648912087082863,0.1862419843673706,-0.02364891767501831,5.587935447692871e-09,0.0,0.00812025461345911,0.610335111618042,0.061315901807536655,-0.94502854347229,0.2940618097782135,-0.9369082450866699,0.6299538016319275,1.7488353252410889,0.48935770988464355,,,,,,,
4574356000.0,74.04,-2.450000047683716,12031147008.0,2272.165912226012,18.0,-0.0140482597053051,77824.0,34.18024516105652,1.559863349598345e-14,0.0,2.2756361961364746,-0.022756371647119522,0.18224483728408813,-0.022756362333893776,-8.381903171539307e-09,0.0,0.024429095908999443,0.6033090353012085,-0.05457633147480223,-0.9283923506736755,0.30281153321266174,-0.9039632081985474,0.5874903798103333,1.802685260772705,0.4893209934234619,,,,,,,
4623724000.0,75.85,-2.240000009536743,12031147008.0,2248.8388133161593,19.0,-0.015129552222788334,81920.0,36.00162959098816,1.976543928527974e-14,0.0,2.124197006225586,-0.02124197781085968,0.19625318050384521,-0.021241970360279083,-7.450580596923828e-09,0.0,0.03104129433631897,0.6258101463317871,-0.07534169969337046,-0.8675395250320435,0.2930947542190552,-0.8364982604980469,0.603489100933075,1.8213844299316406,0.4891960620880127,,,,,,,
4672828000.0,74.64,-2.2300000190734863,12031147008.0,2172.825584393985,20.0,-0.013630980625748634,86016.0,37.88673257827759,2.161812395762297e-14,0.0,2.010647773742676,-0.02010648511350155,0.15679755806922913,-0.020106477662920952,-7.450580596923828e-09,0.0,-0.00048408471047878265,0.5600638389587402,0.02632839073592952,-0.793066143989563,0.22733284533023834,-0.7935502529144287,0.5675854682922363,1.8851029872894287,0.48981332778930664,,,,,,,
4721932000.0,74.62,-2.240000009536743,12031147008.0,2272.177932725563,21.0,-0.015007732436060905,90112.0,39.68940830230713,2.6482288584261937e-14,0.0,1.8819578886032104,-0.018819570541381836,0.1624881476163864,-0.018819577991962433,7.450580596923828e-09,0.0,-0.026378929615020752,0.5695257782936096,-0.12652213758965325,-0.7015883922576904,0.19233419001102448,-0.7279673218727112,0.5365911722183228,1.802675724029541,0.48928093910217285,,,,,,,
4771300000.0,74.54,-1.9199999570846558,12031147008.0,2217.9295255918482,22.0,-0.00986335426568985,94208.0,41.53617572784424,2.8177113420291278e-14,0.0,1.5658540725708008,-0.015658535063266754,0.10641306638717651,-0.015658540651202202,5.587935447692871e-09,0.0,0.04053978621959686,0.4596022665500641,0.06001163808777643,-0.6785685420036316,0.14525677263736725,-0.6380288004875183,0.4740464985370636,1.8467674255371094,0.4893162250518799,,,,,,,
4820404000.0,69.83,-1.3700000047683716,12031147008.0,2216.517358185353,23.0,-0.014870221726596355,98304.0,43.384119749069214,2.5836971451198565e-14,0.0,1.568659782409668,-0.015686601400375366,0.1572730392217636,-0.015686597675085068,-3.725290298461914e-09,0.0,-0.08024081587791443,0.5551421046257019,-0.040462906288161404,-0.5804179310798645,0.12488958984613419,-0.6606587767601013,0.5442404747009277,1.8479440212249756,0.48911023139953613,,,,,,,
4869508000.0,70.94,-1.7100000381469727,12031147008.0,2234.6945585033313,24.0,-0.009496241807937622,102400.0,45.21703243255615,2.5890747878953846e-14,0.0,1.6272555589675903,-0.016272563487291336,0.10884217172861099,-0.01627255603671074,-6.984919309616089e-09,0.0,0.010522492229938507,0.4665048122406006,0.056357517638505494,-0.5496233701705933,0.11895059049129486,-0.5391008853912354,0.48023343086242676,1.8329126834869385,0.4889364242553711,,,,,,,
4918876000.0,72.78,-1.440000057220459,12031147008.0,2300.5634259319395,25.0,-0.008585717529058456,106496.0,46.99746584892273,2.0398613354011275e-14,0.0,1.9230773448944092,-0.01923077553510666,0.10464213788509369,-0.01923077367246151,-9.313225746154785e-10,0.0,-0.007832341827452183,0.4574647843837738,0.08179600567336343,-0.4925815463066101,0.09428956359624863,-0.5004138946533203,0.47740623354911804,1.7804334163665771,0.4893507957458496,,,,,,,
4967980000.0,72.72,-1.5199999809265137,12031147008.0,2290.596998921758,26.0,-0.009777096100151539,110592.0,48.785645961761475,2.167190038537825e-14,0.0,1.8259847164154053,-0.018259847536683083,0.11309221386909485,-0.018259847536683083,-4.656612873077393e-10,0.0,-0.01248168759047985,0.4754827320575714,0.08423966146580286,-0.4884086549282074,0.09829992055892944,-0.5008903741836548,0.49687129259109497,1.7881801128387451,0.48923182487487793,,,,,,,
5017348000.0,71.77,-1.659999966621399,12031147008.0,2284.5470470674795,27.0,-0.012942691333591938,114688.0,50.578561544418335,2.24160967565723e-14,0.0,1.8329180479049683,-0.018329180777072906,0.1391689032316208,-0.018329180777072906,0.0,0.0,-0.04522738605737686,0.5256993174552917,0.11436539862295436,-0.48873937129974365,0.10880155116319656,-0.5339667797088623,0.5586118102073669,1.7929155826568604,0.48936009407043457,,,,,,,
5066452000.0,70.48,-1.899999976158142,12031147008.0,2223.1850440363514,28.0,-0.015238633379340172,118784.0,52.420963287353516,1.5036583089766964e-14,0.0,2.1997783184051514,-0.021997785195708275,0.17080314457416534,-0.021997783333063126,-1.862645149230957e-09,0.0,-0.07941129803657532,0.5791217684745789,0.05217924668389651,-0.505722165107727,0.1051281988620758,-0.5851335525512695,0.5948491096496582,1.8424017429351807,0.4891548156738281,,,,,,,
5115820000.0,73.43,-1.8200000524520874,12031147008.0,2238.9395717597977,29.0,-0.011061293072998524,122880.0,54.25040078163147,1.4325346464616473e-14,0.0,2.1979875564575195,-0.02197987399995327,0.1413017213344574,-0.02197987586259842,1.862645149230957e-09,0.0,-0.0012137684971094131,0.5316681265830994,0.0560965515385331,-0.5457647442817688,0.12428326159715652,-0.5469784736633301,0.5472387671470642,1.829437494277954,0.48920702934265137,,,,,,,
5164924000.0,73.18,-1.809999942779541,12031147008.0,2252.265810292225,30.0,-0.013253952376544476,126976.0,56.069013833999634,1.5189238755652923e-14,0.0,2.207716703414917,-0.0220771636813879,0.1538463532924652,-0.0220771674066782,3.725290298461914e-09,0.0,-0.015978796407580376,0.5545380711555481,0.10572759379031771,-0.6018373966217041,0.138112410902977,-0.6178162097930908,0.5864033699035645,1.818613052368164,0.4895007610321045,,,,,,,
5214028000.0,74.18,-2.009999990463257,12031147008.0,2302.426597062628,31.0,-0.0138392373919487,131072.0,57.8480064868927,1.573914609753757e-14,0.0,2.1860814094543457,-0.021860811859369278,0.1569633185863495,-0.021860813722014427,1.862645149230957e-09,0.0,-0.002877902239561081,0.5603525638580322,0.16448000848562838,-0.6844267249107361,0.17499151825904846,-0.6873046159744263,0.6130317449569702,1.7789926528930664,0.4895458221435547,,,,,,,
,,,,,,,,,,,,,,,,,,,,,,,,,,0.009782349690794945,0.2101510465145111,0.18324656784534454,0.009782349690794945,0.2101510465145111,0.18324656784534454,
,,,,,,,,,,,,,,,,,,,,,,,,,,0.005527147091925144,0.16987478733062744,0.16101866960525513,0.005527147091925144,0.16987478733062744,0.16101866960525513,
,,,,,,,,,,,,,,,,,,,,,,,,,,0.0036171621177345514,0.15282349288463593,0.15048158168792725,0.0036171621177345514,0.15282349288463593,0.15048158168792725,
,,,,,,,,,,,,,,,,,,,,,,,,,,0.002977629192173481,0.1458747535943985,0.14171761274337769,0.002977629192173481,0.1458747535943985,0.14171761274337769,
,,,,,,,,,,,,,,,,,,,,,,,,,,0.004748562816530466,0.14107926189899445,0.13908690214157104,0.004748562816530466,0.14107926189899445,0.13908690214157104,
,,,,,,,,,,,,,,,,,,,,,,,,,,0.005800164304673672,0.13973015546798706,0.13731031119823456,0.005800164304673672,0.13973015546798706,0.13731031119823456,
,,,,,,,,,,,,,,,,,,,,,,,,,,,,,,,,-1.42
5230800000.0,73.21,-2.0799999237060547,11990518784.0,30.793306342430352,32.0,-0.016839630901813507,135168.0,190.86392736434937,1.320818454608741e-14,0.0,2.059901237487793,-0.020599013194441795,0.1329037845134735,-0.020599011331796646,-1.862645149230957e-09,0.0,-0.025318656116724014,0.5150061249732971,0.47877042619207155,-0.6150621175765991,0.3723798394203186,-0.6403807401657104,0.7133421897888184,133.01592087745667,0.5137989521026611,,,,,,,
5230800000.0,73.1,-2.1600000858306885,12041169408.0,2306.3350706156043,33.0,-0.012027282267808914,139264.0,192.6399052143097,1.3685233501981031e-14,0.0,1.9561967849731445,-0.01956195943057537,0.16143988072872162,-0.019561966881155968,7.450580596923828e-09,0.0,0.004172664135694504,0.5682791471481323,0.47842135685553866,-0.6456000804901123,0.4020761549472809,-0.6414273977279663,0.7868678569793701,1.7759778499603271,0.4900779724121094,,,,,,,
5230800000.0,76.27,-1.6799999475479126,12041169408.0,2231.830376481993,34.0,-0.011055922135710716,143360.0,194.47517013549805,1.434789786980417e-14,0.0,1.8639585971832275,-0.018639596179127693,0.11235292255878448,-0.018639585003256798,-1.1175870895385742e-08,0.0,0.09356583654880524,0.4647623300552368,0.5538684952882458,-0.6574368476867676,0.4367291331291199,-0.5638710260391235,0.6958240866661072,1.8352649211883545,0.48978734016418457,,,,,,,
5230800000.0,75.04,-1.5800000429153442,12041169408.0,2224.114973379031,35.0,-0.01073294784873724,147456.0,196.31680154800415,1.4110240753595349e-14,0.0,1.8263208866119385,-0.018263207748532295,0.0984557718038559,-0.018263207748532295,0.0,0.0,0.05629522353410721,0.440215528011322,0.6034895757214374,-0.7045972347259521,0.45478686690330505,-0.6483019590377808,0.6990979313850403,1.8416314125061035,0.4897165298461914,,,,,,,
5230800000.0,76.04,-1.4600000381469727,12041169408.0,2237.7048298973186,36.0,-0.007423658389598131,151552.0,198.14724850654602,1.4264631142957285e-14,0.0,1.6369251012802124,-0.016369232907891273,0.09442614018917084,-0.016369251534342766,1.862645149230957e-08,0.0,0.14132213592529297,0.41100069880485535,0.6526304509679234,-0.7322346568107605,0.5166357159614563,-0.5909125804901123,0.6973434090614319,1.8304469585418701,0.4900679588317871,,,,,,,
5230800000.0,76.43,-1.1699999570846558,12041169408.0,2266.7252990371753,37.0,-0.00982463825494051,155648.0,199.95426058769226,1.4922091340352495e-14,0.0,1.7129545211791992,-0.017129557207226753,0.07487104833126068,-0.01712954416871071,-1.30385160446167e-08,0.0,0.10173296928405762,0.37339863181114197,0.6900527035467636,-0.636719286441803,0.4853487014770508,-0.5349862575531006,0.67070072889328,1.8070120811462402,0.48981642723083496,,,,,,,
5230800000.0,73.87,-1.2799999713897705,12041169408.0,2336.943451115001,38.0,-0.009358231909573078,159744.0,201.70697736740112,1.4672291159811834e-14,0.0,1.7614288330078125,-0.01761430688202381,0.0981697365641594,-0.01761428825557232,-1.862645149230957e-08,0.0,0.08334547281265259,0.43524619936943054,0.6425737900974047,-0.6457951068878174,0.529606282711029,-0.5624496936798096,0.7280174493789673,1.7527167797088623,0.48996400833129883,,,,,,,
5230800000.0,71.55,-1.25,12041169408.0,2339.527570343988,39.0,-0.008229992352426052,163840.0,203.45775818824768,1.4068607390171906e-14,0.0,1.7985520362854004,-0.017985505983233452,0.060929276049137115,-0.017985520884394646,1.4901161193847656e-08,0.0,0.08494463562965393,0.3386310040950775,0.6799718327529587,-0.4493693709373474,0.48718249797821045,-0.36442476511001587,0.5985943078994751,1.7507808208465576,0.48973584175109863,,,,,,,
5230800000.0,71.87,-1.0700000524520874,12041169408.0,2221.215221361685,40.0,-0.008948596194386482,167936.0,205.30179381370544,1.3673090437649194e-14,0.0,1.9476292133331299,-0.01947629824280739,0.05756231024861336,-0.01947629079222679,-7.450580596923828e-09,0.0,0.054925981909036636,0.33486583828926086,0.7373482388637251,-0.4631110727787018,0.5040618777275085,-0.40818506479263306,0.6534023284912109,1.8440356254577637,0.4895303249359131,,,,,,,
5230800000.0,71.08,-1.2999999523162842,12041169408.0,2277.6037177987732,41.0,-0.009136145003139973,172032.0,207.1001751422882,1.3499618090051513e-14,0.0,1.9242045879364014,-0.01924203336238861,0.058102454990148544,-0.019242044538259506,1.1175870895385742e-08,0.0,0.05158940702676773,0.337003231048584,0.7051083480021982,-0.39082860946655273,0.4955556094646454,-0.3392392098903656,0.620587170124054,1.7983813285827637,0.4899313449859619,,,,,,,
5230800000.0,74.4,-0.9300000071525574,12041169408.0,2196.8181422244706,42.0,-0.005818523466587067,176128.0,208.96468997001648,1.4420756255795197e-14,0.0,1.9175139665603638,-0.019175155088305473,0.04637783020734787,-0.01917513832449913,-1.6763806343078613e-08,0.0,0.05033305287361145,0.30040687322616577,0.652344644860384,-0.2792816758155823,0.41932982206344604,-0.22894863784313202,0.5094897150993347,1.8645148277282715,0.4898107051849365,,,,,,,
5230800000.0,75.27,-1.059999942779541,12041169408.0,2266.3192299838165,43.0,-0.010070670396089554,180224.0,210.77202582359314,1.5367915273678534e-14,0.0,1.862758755683899,-0.0186275877058506,0.06431739032268524,-0.0186275877058506,0.0,0.0,-0.026894040405750275,0.35769081115722656,0.688117802362211,-0.2502363324165344,0.45638957619667053,-0.2771303653717041,0.6404902935028076,1.8073358535766602,0.4898409843444824,,,,,,,
5230800000.0,73.24,-1.3700000047683716,12041169408.0,2316.573848028362,44.0,-0.011761526577174664,184320.0,212.5401542186737,1.5338424974586928e-14,0.0,1.8790346384048462,-0.018790353089571,0.0943465456366539,-0.018790345638990402,-7.450580596923828e-09,0.0,-0.06315270066261292,0.42982548475265503,0.59628841807553,-0.21420066058635712,0.452675461769104,-0.27735334634780884,0.6764824986457825,1.7681283950805664,0.4896824359893799,,,,,,,
5230800000.0,71.58,-1.6399999856948853,12041169408.0,2336.0600516139943,45.0,-0.012894726358354092,188416.0,214.29353380203247,1.697253448895708e-14,0.0,1.7155530452728271,-0.01715552993118763,0.07139300554990768,-0.01715552993118763,-4.656612873077393e-10,0.0,-0.010075590573251247,0.37778210639953613,0.6980203347219169,-0.2931074798107147,0.49570751190185547,-0.30318307876586914,0.6874681115150452,1.7533795833587646,0.48982930183410645,,,,,,,
5230800000.0,73.68,-1.2599999904632568,12041169408.0,2251.2033394588893,46.0,-0.00607008021324873,192512.0,216.1130051612854,1.975503094442388e-14,0.0,1.5123940706253052,-0.015123932622373104,0.040197644382715225,-0.015123940072953701,7.450580596923828e-09,0.0,0.014557871967554092,0.2832012474536896,0.740619954815434,-0.17010082304477692,0.4540364742279053,-0.15554293990135193,0.5560666918754578,1.8194713592529297,0.48956298828125,,,,,,,
5230800000.0,71.42,-0.8999999761581421,12041169408.0,2270.332473296299,47.0,-0.010665738955140114,196608.0,217.9171462059021,1.8533785617336207e-14,0.0,1.5026919841766357,-0.015026913955807686,0.061355844140052795,-0.015026919543743134,5.587935447692871e-09,0.0,-0.0032123643904924393,0.35033029317855835,0.7378237804207267,-0.25761809945106506,0.5665169358253479,-0.26083046197891235,0.6841968894004822,1.8041410446166992,0.48972630500793457,,,,,,,
5230800000.0,72.06,-1.0700000524520874,12041169408.0,2299.7661106669802,48.0,-0.005149650387465954,200704.0,219.69819688796997,2.0632801023268144e-14,0.0,1.2203936576843262,-0.012203947640955448,0.03729882091283798,-0.012203936465084553,-1.1175870895385742e-08,0.0,0.023044850677251816,0.27218496799468994,0.7485189751498784,-0.1848408728837967,0.4727941155433655,-0.16179601848125458,0.5427646636962891,1.781050682067871,0.49037957191467285,,,,,,,
5230800000.0,71.44,-0.6200000047683716,12041169408.0,2209.8579948331635,49.0,-0.004761401563882828,204800.0,221.55170965194702,2.335631688055173e-14,0.0,1.0392796993255615,-0.010392791591584682,0.03189470246434212,-0.01039279717952013,5.587935447692871e-09,0.0,0.018095875158905983,0.251947283744812,0.7946402053443093,-0.17686277627944946,0.4945297837257385,-0.15876689553260803,0.5559707880020142,1.8535127639770508,0.48958563804626465,,,,,,,
5230800000.0,71.77,-0.6100000143051147,12041169408.0,2248.845289523364,50.0,-0.003943127579987049,208896.0,223.37308883666992,2.4740626214381223e-14,0.0,0.97393399477005,-0.009739337489008904,0.033563584089279175,-0.009739339351654053,1.862645149230957e-09,0.0,0.05681699141860008,0.2528133690357208,0.8010192847478028,-0.18392157554626465,0.5644779801368713,-0.12710458040237427,0.5667539238929749,1.8213791847229004,0.48979735374450684,,,,,,,
5230800000.0,72.62,-0.47999998927116394,12041169408.0,2311.8712781179447,51.0,-0.004249430727213621,212992.0,225.14481377601624,2.8248237082806327e-14,0.0,0.8711168766021729,-0.008711151778697968,0.02961897663772106,-0.00871116854250431,1.6763806343078613e-08,0.0,0.021153561770915985,0.24249708652496338,0.8237844954817516,-0.14240625500679016,0.5478552579879761,-0.12125268578529358,0.5776761770248413,1.7717249393463135,0.4898953437805176,,,,,,,
5230800000.0,71.28,-0.6000000238418579,12041169408.0,2292.92349892113,52.0,-0.00526793347671628,217088.0,226.93117952346802,2.8076499458684623e-14,0.0,0.9394932985305786,-0.009394936263561249,0.025328952819108963,-0.00939493253827095,-3.725290298461914e-09,0.0,0.011717332527041435,0.22479534149169922,0.8549248118037891,-0.12204957753419876,0.5206698179244995,-0.11033225804567337,0.5901885032653809,1.7863657474517822,0.4897322654724121,,,,,,,
5230800000.0,72.69,-0.4699999988079071,12041169408.0,2307.429157020407,53.0,-0.003578840522095561,221184.0,228.70631527900696,3.189636055278555e-14,0.0,0.950331449508667,-0.009503314271569252,0.020944539457559586,-0.009503314271569252,0.0,0.0,0.01328573003411293,0.20426148176193237,0.8684185639334064,-0.10069668292999268,0.5195299386978149,-0.08741095662117004,0.5631047487258911,1.7751357555389404,0.49008703231811523,,,,,,,
5230800000.0,70.55,-0.7900000214576721,12041169408.0,2252.0815768361554,54.0,-0.0074796779081225395,225280.0,230.52507710456848,3.324944486404746e-14,0.0,0.928672194480896,-0.009286725893616676,0.01949121430516243,-0.009286722168326378,-3.725290298461914e-09,0.0,-0.028172902762889862,0.19544318318367004,0.9009388435460715,-0.10946022719144821,0.5445622801780701,-0.13763312995433807,0.6209675073623657,1.8187618255615234,0.489912748336792,,,,,,,
5230800000.0,71.32,-0.8700000047683716,12041169408.0,2289.5764816324727,55.0,-0.007944516837596893,229376.0,232.31405425071716,3.1754113227755454e-14,0.0,0.9716183543205261,-0.009716195054352283,0.023486532270908356,-0.009716182947158813,-1.210719347000122e-08,0.0,-0.0287088043987751,0.21484911441802979,0.9075664224048696,-0.14872562885284424,0.6019470691680908,-0.17743444442749023,0.7066733241081238,1.7889771461486816,0.489837646484375,,,,,,,
5230800000.0,72.0,-0.7900000214576721,12041169408.0,2317.650783218138,56.0,-0.004501604475080967,233472.0,234.08136105537415,3.121287950325069e-14,0.0,0.9838612079620361,-0.009838615544140339,0.016031745821237564,-0.00983861181885004,-3.725290298461914e-09,0.0,-0.01275605522096157,0.17862968146800995,0.910509831419458,-0.06420310586690903,0.528453528881073,-0.07695916295051575,0.5971259474754333,1.7673068046569824,0.48982715606689453,,,,,,,
5230800000.0,72.82,-0.6000000238418579,12041169408.0,2324.6561544860792,57.0,-0.005107973702251911,237568.0,235.84334206581116,2.6983623668819234e-14,0.0,1.075202226638794,-0.010752027854323387,0.016375958919525146,-0.01075202226638794,-5.587935447692871e-09,0.0,0.00017680088058114052,0.18099690973758698,0.920774698612048,-0.09136153757572174,0.5977813005447388,-0.09118473529815674,0.6430418491363525,1.7619810104370117,0.490070104598999,,,,,,,
5230800000.0,71.52,-0.7099999785423279,12041169408.0,2247.624301111732,58.0,-0.005569675471633673,241664.0,237.66571068763733,2.6038199374411874e-14,0.0,1.1585845947265625,-0.011585849337279797,0.01889367774128914,-0.011585845611989498,-3.725290298461914e-09,0.0,0.009217152372002602,0.1941947489976883,0.9292948416136131,-0.17422889173030853,0.7232099771499634,-0.16501173377037048,0.7303178906440735,1.8223686218261719,0.4897754192352295,,,,,,,
5230800000.0,68.79,-0.5299999713897705,12041169408.0,2305.6658726508504,59.0,-0.00368261756375432,245760.0,239.44220399856567,2.5786664470395237e-14,0.0,1.2521052360534668,-0.012521060183644295,0.01881888136267662,-0.012521051801741123,-8.381903171539307e-09,0.0,0.013292791321873665,0.1935722380876541,0.905296343782249,-0.08472184091806412,0.6289108991622925,-0.071429044008255,0.6290131211280823,1.7764933109283447,0.4901156425476074,,,,,,,
5230800000.0,69.05,-0.6299999952316284,12041169408.0,2288.2392509542283,60.0,-0.006801946088671684,249856.0,241.23222661018372,2.236232032881702e-14,0.0,1.4471676349639893,-0.014471661299467087,0.0230442862957716,-0.01447167620062828,1.4901161193847656e-08,0.0,-0.01337934099137783,0.21429133415222168,0.9268661560033515,-0.18265673518180847,0.7650588750839233,-0.19603607058525085,0.7924017906188965,1.790022611618042,0.4899120330810547,,,,,,,
5230800000.0,70.27,-0.8899999856948853,12041169408.0,2225.771256860364,61.0,-0.008166089653968811,253952.0,243.07248759269714,2.215588823517578e-14,0.0,1.4447778463363647,-0.014447788707911968,0.021595049649477005,-0.014447778463363647,-1.0244548320770264e-08,0.0,-0.02447405457496643,0.20640137791633606,0.9244118279067638,-0.10927681624889374,0.718468964099884,-0.13375087082386017,0.7507331967353821,1.8402609825134277,0.489851713180542,,,,,,,
5230800000.0,70.57,-0.949999988079071,12041169408.0,2334.6914669502744,62.0,-0.007899707183241844,258048.0,244.82689499855042,2.1309343178899098e-14,0.0,1.4888808727264404,-0.01488880068063736,0.020705655217170715,-0.014888808131217957,7.450580596923828e-09,0.0,-0.02075221762061119,0.20246151089668274,0.9346969420072326,-0.159627303481102,0.7805439233779907,-0.18037953972816467,0.792274534702301,1.7544074058532715,0.4900195598602295,,,,,,,
5230800000.0,70.74,-0.7400000095367432,12041169408.0,2229.110035184655,63.0,-0.0041917115449905396,262144.0,246.66439962387085,1.9019508190609713e-14,0.0,1.675034999847412,-0.016750343143939972,0.016901565715670586,-0.01675034873187542,4.6566128730773926e-09,0.0,-0.009148567914962769,0.183650940656662,0.9226644496323356,-0.036405906081199646,0.6201038360595703,-0.04555447772145271,0.6603947281837463,1.8375046253204346,0.48984837532043457,,,,,,,
,,,,,,,,,,,,,,,,,,,,,,,,,,0.004959376063197851,0.07955540716648102,0.06607028096914291,0.004959376063197851,0.07955540716648102,0.06607028096914291,
,,,,,,,,,,,,,,,,,,,,,,,,,,0.0014593618689104915,0.054749783128499985,0.051461778581142426,0.0014593618689104915,0.054749783128499985,0.051461778581142426,
,,,,,,,,,,,,,,,,,,,,,,,,,,0.0015739627415314317,0.05156650021672249,0.04789740964770317,0.0015739627415314317,0.05156650021672249,0.04789740964770317,
,,,,,,,,,,,,,,,,,,,,,,,,,,0.0012108351802453399,0.04752838984131813,0.044286709278821945,0.0012108351802453399,0.04752838984131813,0.044286709278821945,
,,,,,,,,,,,,,,,,,,,,,,,,,,0.0010754618560895324,0.04550325125455856,0.04252055659890175,0.0010754618560895324,0.04550325125455856,0.04252055659890175,
,,,,,,,,,,,,,,,,,,,,,,,,,,0.0012700441293418407,0.04356556013226509,0.041278548538684845,0.0012700441293418407,0.04356556013226509,0.041278548538684845,
,,,,,,,,,,,,,,,,,,,,,,,,,,,,,,,,-1.74
5239580000.0,72.45,-0.7200000286102295,11990521856.0,30.779025915599686,64.0,-0.008568525314331055,266240.0,379.74203538894653,1.6601303665098044e-14,0.0,1.593679428100586,-0.015936793759465218,0.012838424183428288,-0.015936793759465218,0.0,0.0,0.0016751352231949568,0.16025078296661377,0.9479668745913654,-0.28583255410194397,0.6090269088745117,-0.2841574549674988,0.7025223970413208,133.07763576507568,0.5052752494812012,,,,,,,
5239580000.0,70.19,-0.6899999976158142,12041169408.0,2291.027702309755,65.0,-0.0021146938670426607,270336.0,381.52987933158875,1.576169750272527e-14,0.0,1.7103009223937988,-0.01710301637649536,0.007980560883879662,-0.017103008925914764,-7.450580596923828e-09,0.0,0.037124812602996826,0.1207742989063263,0.947510622178457,-0.16218967735767365,0.49832987785339355,-0.125064879655838,0.5271555781364441,1.787843942642212,0.48987507820129395,,,,,,,
5239580000.0,72.14,-0.4399999976158142,12041169408.0,2208.2244498580776,66.0,-0.006063083186745644,274432.0,383.3847632408142,1.5943843467702834e-14,0.0,1.7457869052886963,-0.0174578707665205,0.013402840122580528,-0.01745786890387535,-1.862645149230957e-09,0.0,0.020904501900076866,0.16240419447422028,0.9416427598695869,-0.21595454216003418,0.6031198501586914,-0.19505003094673157,0.6722794771194458,1.8548839092254639,0.4899420738220215,,,,,,,
5239580000.0,70.09,-0.5600000023841858,12041169408.0,2244.852145568402,67.0,-0.005630515515804291,278528.0,385.2093822956085,1.494117329858824e-14,0.0,1.8263919353485107,-0.018263911828398705,0.009750762954354286,-0.0182639192789793,7.450580596923828e-09,0.0,0.023225512355566025,0.1377197653055191,0.963084250040874,-0.26881736516952515,0.6677393913269043,-0.24559184908866882,0.7167874574661255,1.8246190547943115,0.4897496700286865,,,,,,,
5239580000.0,70.05,-0.6499999761581421,12041169408.0,2282.6556687355105,68.0,-0.005804853048175573,282624.0,387.00378346443176,1.6023640747597767e-14,0.0,1.8735847473144531,-0.018735861405730247,0.010404299944639206,-0.018735846504569054,-1.4901161193847656e-08,0.0,0.02999585121870041,0.1411159485578537,0.9580393878386531,-0.2147560715675354,0.6427815556526184,-0.1847602128982544,0.6888984441757202,1.7944011688232422,0.4902505874633789,,,,,,,
5239580000.0,71.21,-0.5,12041169408.0,2209.7596468062043,69.0,-0.00413897167891264,286720.0,388.8573787212372,1.6752224607508026e-14,0.0,1.791524887084961,-0.017915278673171997,0.010210821405053139,-0.01791524887084961,-2.9802322387695312e-08,0.0,0.0503239780664444,0.13376662135124207,0.9657447275031736,-0.25396278500556946,0.7222260236740112,-0.20363880693912506,0.7227432727813721,1.85359525680542,0.4902064800262451,,,,,,,
5239580000.0,71.31,-0.27000001072883606,12041169408.0,2293.915454284841,70.0,-0.0015404472360387444,290816.0,390.6429719924927,1.7137333219174877e-14,0.0,1.7504123449325562,-0.017504120245575905,0.007985140196979046,-0.017504123970866203,3.725290298461914e-09,0.0,0.02333124913275242,0.12421634048223495,0.9548609860303892,-0.1572907567024231,0.597763180732727,-0.13395950198173523,0.5846590995788574,1.7855932712554932,0.48995018005371094,,,,,,,
5239580000.0,72.75,-0.44999998807907104,12041169408.0,2325.467991679147,71.0,-0.007112815976142883,294912.0,392.4043378829956,1.810877836572189e-14,0.0,1.7273266315460205,-0.017273258417844772,0.010598843917250633,-0.01727326586842537,7.450580596923828e-09,0.0,0.04372726380825043,0.1388896107673645,0.96696240918119,-0.25798654556274414,0.7792072892189026,-0.2142592966556549,0.7641270160675049,1.7613658905029297,0.48998022079467773,,,,,,,
5239580000.0,74.48,-0.7400000095367432,12041169408.0,2297.2708781124047,72.0,-0.004964902065694332,299008.0,394.1873230934143,1.861358289723114e-14,0.0,1.719409704208374,-0.017194107174873352,0.009509557858109474,-0.017194095999002457,-1.1175870895385742e-08,0.0,0.03697944059967995,0.13287568092346191,0.9722043646248291,-0.24619583785533905,0.8148541450500488,-0.2092163860797882,0.7969979643821716,1.7829852104187012,0.4898102283477783,,,,,,,
5239580000.0,72.79,-0.6800000071525574,12041169408.0,2269.5571706200813,73.0,-0.005293744616210461,303104.0,395.992080450058,1.7368051441479793e-14,0.0,1.6620503664016724,-0.016620488837361336,0.007376415655016899,-0.01662050373852253,1.4901161193847656e-08,0.0,0.020986590534448624,0.1196490228176117,0.9717956010521986,-0.17235079407691956,0.716575026512146,-0.15136420726776123,0.712444007396698,1.8047573566436768,0.4916038513183594,,,,,,,
5239580000.0,73.73,-0.38999998569488525,12041169408.0,2284.2979624784584,74.0,-0.0028130165301263332,307200.0,397.7851915359497,1.6481607745255644e-14,0.0,1.7909730672836304,-0.017909720540046692,0.007065382320433855,-0.017909729853272438,9.313225746154785e-09,0.0,0.02590118907392025,0.11603094637393951,0.9678486936459684,-0.07385643571615219,0.66056227684021,-0.047955241054296494,0.6471046209335327,1.7931110858917236,0.4898347854614258,,,,,,,
5239580000.0,74.17,-0.25999999046325684,12041169408.0,2267.3571183281715,75.0,-0.0028232764452695847,311296.0,399.5917000770569,1.637578961322106e-14,0.0,1.8307242393493652,-0.018307236954569817,0.010262795723974705,-0.018307242542505264,5.587935447692871e-09,0.0,0.033007584512233734,0.13943038880825043,0.9644640165299083,-0.1405283510684967,0.7417665719985962,-0.10752075910568237,0.7396450042724609,1.8065085411071777,0.489896297454834,,,,,,,
5239580000.0,72.18,-0.46000000834465027,12041169408.0,2261.918040000179,76.0,-0.004249442368745804,315392.0,401.4025526046753,1.710784292008327e-14,0.0,1.708693265914917,-0.017086932435631752,0.014726703986525536,-0.017086932435631752,0.0,0.0,-0.008022506721317768,0.17145328223705292,0.9314279204660132,-0.09008137881755829,0.6278659105300903,-0.09810388088226318,0.6547449231147766,1.8108525276184082,0.48975682258605957,,,,,,,
5239580000.0,71.3,-0.6100000143051147,12041169408.0,2313.3424975428966,77.0,-0.005839735269546509,319488.0,403.1731507778168,1.6183235307387633e-14,0.0,1.782671332359314,-0.01782672107219696,0.03311563655734062,-0.017826713621616364,-6.51925802230835e-09,0.0,-0.0011664425255730748,0.2573831379413605,0.8867654106934583,-0.14679893851280212,0.7054623365402222,-0.14796540141105652,0.7648751735687256,1.7705981731414795,0.49004554748535156,,,,,,,
5239580000.0,71.95,-0.5299999713897705,12041169408.0,2306.5208558465847,78.0,-0.004432654473930597,323584.0,404.94898557662964,1.63202784619898e-14,0.0,1.8781452178955078,-0.018781451508402824,0.03968335688114166,-0.018781451508402824,0.0,0.0,-0.00011489074677228928,0.28175535798072815,0.8485737577987141,-0.05675309896469116,0.6518553495407104,-0.05686798691749573,0.7240550518035889,1.7758347988128662,0.4898550510406494,,,,,,,
5239580000.0,67.41,-0.25999999046325684,12041169408.0,2297.416187332582,79.0,-0.0007937427144497633,327680.0,406.7318580150604,1.6453852169640015e-14,0.0,2.0408780574798584,-0.02040877752006054,0.026085861027240753,-0.02040877938270569,1.862645149230957e-09,0.0,-0.015785126015543938,0.22789302468299866,0.845206889787246,0.0590025968849659,0.4945805072784424,0.04321747273206711,0.5792356133460999,1.7828724384307861,0.48987650871276855,,,,,,,
5239580000.0,71.89,-0.28999999165534973,12041169408.0,2233.231357510825,80.0,-0.004289934411644936,331776.0,408.5659716129303,1.6297727056802103e-14,0.0,1.9151538610458374,-0.019151538610458374,0.053547073155641556,-0.019151538610458374,0.0,0.0,-0.01513468287885189,0.32694217562675476,0.8196630876632673,-0.08670148253440857,0.6629335880279541,-0.10183616727590561,0.7698899507522583,1.834113597869873,0.4898192882537842,,,,,,,
5239580000.0,71.78,-0.6200000047683716,12041169408.0,2301.9114028019217,81.0,-0.005256308242678642,335872.0,410.34536242485046,1.5607307113363333e-14,0.0,2.0239858627319336,-0.020239857956767082,0.012093940749764442,-0.020239857956767082,0.0,0.0,-0.003884583245962858,0.15549498796463013,0.9533620667315803,-0.014221025630831718,0.6674385666847229,-0.018105603754520416,0.7200236916542053,1.779390811920166,0.4896261692047119,,,,,,,
5239580000.0,73.45,-0.46000000834465027,12041169408.0,2220.1109707270066,82.0,-0.005588039755821228,339968.0,412.19031524658203,1.534362914501486e-14,0.0,1.8530268669128418,-0.018530266359448433,0.021216947585344315,-0.018530268222093582,1.862645149230957e-09,0.0,-0.01330218743532896,0.20559003949165344,0.9346083320794504,-0.06880593299865723,0.757413387298584,-0.08210811764001846,0.8039719462394714,1.8449528217315674,0.4899601936340332,,,,,,,
5239580000.0,70.93,-0.6700000166893005,12041169408.0,2199.126843222823,83.0,-0.006080654449760914,344064.0,414.0528726577759,1.569577801063815e-14,0.0,1.994832158088684,-0.019948318600654602,0.019996650516986847,-0.01994832046329975,1.6298145055770874e-09,0.0,0.018922163173556328,0.19911034405231476,0.9344717865132264,-0.01949886418879032,0.7306154370307922,-0.0005767010152339935,0.7778211236000061,1.8625574111938477,0.4898674488067627,,,,,,,
5239580000.0,75.32,-0.3400000035762787,12041169408.0,2286.4826434283023,84.0,-0.00032099278178066015,348160.0,415.8442704677582,1.6561405025150577e-14,0.0,1.7735402584075928,-0.01773541048169136,0.047808416187763214,-0.017735403031110764,-7.450580596923828e-09,0.0,0.0050272829830646515,0.30921658873558044,0.7659754358228729,0.0842519998550415,0.6164554357528687,0.08927927911281586,0.6391931176185608,1.7913978099822998,0.48946595191955566,,,,,,,
5239580000.0,73.2,-0.4099999964237213,12041169408.0,2258.3517829021225,85.0,-0.007875870913267136,352256.0,417.65798258781433,1.897787482718627e-14,0.0,1.817286491394043,-0.018172862008213997,0.05358889698982239,-0.018172863870859146,1.862645149230957e-09,0.0,-0.03637947142124176,0.32539233565330505,0.8662051622305493,-0.13647188246250153,0.8110582828521729,-0.1728513538837433,0.8895853757858276,1.8137121200561523,0.4899001121520996,,,,,,,
5239580000.0,70.73,-0.8299999833106995,12041169408.0,2253.0284557824716,86.0,-0.006761286407709122,356352.0,419.47598004341125,1.9383800120564842e-14,0.0,1.7395925521850586,-0.017395921051502228,0.03950633853673935,-0.017395924776792526,4.6566128730773926e-09,0.0,0.001560003263875842,0.2811219096183777,0.883457350018593,-0.11117513477802277,0.8108398914337158,-0.10961513221263885,0.8234785199165344,1.8179974555969238,0.4902215003967285,,,,,,,
5239580000.0,67.8,-0.3799999952316284,12041169408.0,2196.4431903797613,87.0,-0.0011299226898699999,360448.0,421.3408131599426,2.0051668658815913e-14,0.0,1.5968906879425049,-0.015968909487128258,0.029410317540168762,-0.01596890576183796,-3.725290298461914e-09,0.0,0.009504948742687702,0.24237291514873505,0.8834730547866798,-0.021248647943139076,0.7033149003982544,-0.01174369640648365,0.7100205421447754,1.864833116531372,0.49056005477905273,,,,,,,
5239580000.0,69.67,-0.10000000149011612,12041169408.0,2291.699739694009,88.0,-0.000809498829767108,364544.0,423.1281328201294,2.0507900932997813e-14,0.0,1.5208220481872559,-0.015208223834633827,0.019938502460718155,-0.015208220109343529,-3.725290298461914e-09,0.0,0.008663558401167393,0.19952860474586487,0.9111365943315161,0.026383016258478165,0.6522341370582581,0.035046570003032684,0.6693352460861206,1.7873196601867676,0.4900932312011719,,,,,,,
5239580000.0,71.82,-0.05000000074505806,12041169408.0,2307.137877516367,89.0,-0.001786445383913815,368640.0,424.9034926891327,2.1135870831301418e-14,0.0,1.4512590169906616,-0.014512590132653713,0.01763424277305603,-0.014512590132653713,0.0,0.0,-0.005271604284644127,0.18774797022342682,0.9266180269979132,0.09570351243019104,0.6608837246894836,0.09043191373348236,0.6930755376815796,1.775359869003296,0.48937463760375977,,,,,,,
5239580000.0,72.11,-0.20000000298023224,12041169408.0,2278.742944564182,90.0,-0.0006509989034384489,372736.0,426.70097494125366,2.2339768923629322e-14,0.0,1.5951634645462036,-0.01595163531601429,0.033177703619003296,-0.01595163345336914,-1.862645149230957e-09,0.0,0.019846301525831223,0.2568611204624176,0.8826486979344659,-0.00019232835620641708,0.7760853171348572,0.01965397782623768,0.7498155832290649,1.7974822521209717,0.49016833305358887,,,,,,,
5239580000.0,70.85,-0.20000000298023224,12041169408.0,2328.580244326584,91.0,-0.002611899748444557,376832.0,428.45998668670654,2.4073191356999146e-14,0.0,1.4175909757614136,-0.014175904914736748,0.019065558910369873,-0.01417590957134962,4.6566128730773926e-09,0.0,-0.0038909977301955223,0.19525697827339172,0.9172251284783685,0.08258965611457825,0.6523689031600952,0.07869865745306015,0.6786678433418274,1.7590117454528809,0.48999714851379395,,,,,,,
5239580000.0,73.54,-0.17000000178813934,12041169408.0,2195.449836017306,92.0,-0.0004911515861749649,380928.0,430.32566356658936,2.1474141909116895e-14,0.0,1.4816032648086548,-0.014816033653914928,0.03743237257003784,-0.014816032722592354,-9.313225746154785e-10,0.0,-0.006254751235246658,0.27357611060142517,0.823311716660085,0.14312438666820526,0.6084185242652893,0.1368696391582489,0.6508401036262512,1.8656768798828125,0.4900386333465576,,,,,,,
5239580000.0,74.0,-0.3100000023841858,12041169408.0,2284.0483248744463,93.0,-0.004428409039974213,385024.0,432.1189706325531,2.3602647614140437e-14,0.0,1.5408546924591064,-0.015408552251756191,0.02629077434539795,-0.015408546663820744,-5.587935447692871e-09,0.0,-0.020635750144720078,0.22840413451194763,0.9251004564128968,0.05473875626921654,0.7429208159446716,0.03410300612449646,0.8345730900764465,1.7933070659637451,0.4898712635040283,,,,,,,
5239580000.0,73.08,-0.47999998927116394,12041169408.0,2308.376943895264,94.0,-0.003616757458075881,389120.0,433.8933775424957,2.4801775216909405e-14,0.0,1.4588229656219482,-0.014588240534067154,0.030220823362469673,-0.014588229358196259,-1.1175870895385742e-08,0.0,-0.005963199771940708,0.2458065152168274,0.8873957876425386,0.010336555540561676,0.6818080544471741,0.00437336228787899,0.7325142621994019,1.774406909942627,0.49002528190612793,,,,,,,
5239580000.0,72.68,-0.3499999940395355,12041169408.0,2242.239278510296,95.0,-0.0023072317708283663,393216.0,435.72012281417847,2.336672522140759e-14,0.0,1.4453845024108887,-0.014453848823904991,0.023334680125117302,-0.014453845098614693,-3.725290298461914e-09,0.0,-0.022826867178082466,0.21484777331352234,0.9111117318956768,0.13929352164268494,0.6430514454841614,0.11646665632724762,0.720623791217804,1.8267452716827393,0.4899253845214844,,,,,,,
,,,,,,,,,,,,,,,,,,,,,,,,,,0.005003009922802448,0.03315972909331322,0.02686365880072117,0.005003009922802448,0.03315972909331322,0.02686365880072117,
,,,,,,,,,,,,,,,,,,,,,,,,,,0.0019305514870211482,0.025409799069166183,0.02425713837146759,0.0019305514870211482,0.025409799069166183,0.02425713837146759,
,,,,,,,,,,,,,,,,,,,,,,,,,,0.0017575134988874197,0.02455156482756138,0.02312060445547104,0.0017575134988874197,0.02455156482756138,0.02312060445547104,
,,,,,,,,,,,,,,,,,,,,,,,,,,0.0019703709986060858,0.024185001850128174,0.023329004645347595,0.0019703709986060858,0.024185001850128174,0.023329004645347595,
,,,,,,,,,,,,,,,,,,,,,,,,,,0.0013155383057892323,0.02243378385901451,0.020833058282732964,0.0013155383057892323,0.02243378385901451,0.020833058282732964,
,,,,,,,,,,,,,,,,,,,,,,,,,,0.0015035843243822455,0.022426337003707886,0.020901210606098175,0.0015035843243822455,0.022426337003707886,0.020901210606098175,
,,,,,,,,,,,,,,,,,,,,,,,,,,,,,,,,-1.27
5240224000.0,74.01,-0.20999999344348907,11990521856.0,30.791713798540908,96.0,-0.0008263587951660156,397312.0,568.7429232597351,1.7671628049775734e-14,0.0,1.5280370712280273,-0.01528037991374731,0.017723768949508667,-0.015280370600521564,-9.313225746154785e-09,0.0,0.005301212891936302,0.18822349607944489,0.9078753337049621,0.0047474205493927,0.5970010757446289,0.010048635303974152,0.6201344728469849,133.02280044555664,0.5075650215148926,,,,,,,
5240224000.0,69.28,-0.4000000059604645,12041169408.0,2309.3056429616922,97.0,-0.006456521339714527,401408.0,570.5166165828705,1.8467866125249088e-14,0.0,1.5064666271209717,-0.015064654871821404,0.039345186203718185,-0.015064666047692299,1.1175870895385742e-08,0.0,-0.041907019913196564,0.27740398049354553,0.901558514940355,-0.07398386299610138,0.7436504364013672,-0.11589089035987854,0.8841451406478882,1.773693323135376,0.4899420738220215,,,,,,,
5240224000.0,69.18,-0.4699999988079071,12041169408.0,2304.6603301887044,98.0,-0.003981520421802998,405504.0,572.2938849925995,1.797867410502363e-14,0.0,1.399712324142456,-0.013997119851410389,0.01422076765447855,-0.013997122645378113,2.7939677238464355e-09,0.0,0.004567347466945648,0.16860491037368774,0.9489809224762695,-0.09609527885913849,0.7057191133499146,-0.09152793884277344,0.7464553713798523,1.777268409729004,0.4900493621826172,,,,,,,
5240224000.0,71.41,-0.25,12041169408.0,2303.2164950167426,99.0,-0.001164315384812653,409600.0,574.0722675323486,1.8355109099310596e-14,0.0,1.504788875579834,-0.015047884546220303,0.03733840584754944,-0.015047888271510601,3.725290298461914e-09,0.0,0.059341371059417725,0.2667822539806366,0.8542690087391496,-0.12521785497665405,0.7463954091072083,-0.06587648391723633,0.6988452672958374,1.7783825397491455,0.48958659172058105,,,,,,,
5240224000.0,72.39,-0.009999999776482582,12041169408.0,2297.1719677633987,100.0,-0.00016668334137648344,413696.0,575.8553295135498,1.8757564945737215e-14,0.0,1.626518964767456,-0.01626518927514553,0.026387255638837814,-0.01626518927514553,0.0,0.0,0.045332957059144974,0.22523726522922516,0.8943875495078338,-0.037046026438474655,0.7144063115119934,0.008286932483315468,0.693078875541687,1.7830619812011719,0.48990821838378906,,,,,,,
5240224000.0,73.79,-0.03999999910593033,12041169408.0,2323.853999717294,101.0,-0.0016710307681933045,417792.0,577.6179187297821,1.7376725058859677e-14,0.0,1.6571836471557617,-0.01657184399664402,0.01985917054116726,-0.016571836546063423,-7.450580596923828e-09,0.0,0.007509538903832436,0.19917738437652588,0.9205831492143908,-0.06161344796419144,0.6683984398841858,-0.05410390719771385,0.7067791223526001,1.7625892162322998,0.4897491931915283,,,,,,,
5240224000.0,73.6,-0.15000000596046448,12041169408.0,2182.2504437255184,102.0,0.0006699925288558006,421888.0,579.4948801994324,1.754846268298138e-14,0.0,1.6605802774429321,-0.016605805605649948,0.02909126505255699,-0.01660580188035965,-3.725290298461914e-09,0.0,0.0041444310918450356,0.2412043958902359,0.8728087086182241,-0.024348801001906395,0.6309798955917358,-0.020204363390803337,0.6763266921043396,1.8769614696502686,0.49011754989624023,,,,,,,
5240224000.0,71.9,-0.36000001430511475,12041169408.0,2198.017442770188,103.0,-0.007715447805821896,425984.0,581.3583776950836,1.8552000213833963e-14,0.0,1.6429259777069092,-0.01642926223576069,0.034462228417396545,-0.01642925851047039,-3.725290298461914e-09,0.0,-0.012230910360813141,0.2622816264629364,0.9054959079606373,-0.10995124280452728,0.7513367533683777,-0.12218214571475983,0.8531837463378906,1.8634974956512451,0.4898715019226074,,,,,,,
5240224000.0,71.36,-0.3700000047683716,12041169408.0,2321.9760875188917,104.0,-0.0008408001158386469,430080.0,583.1223924160004,1.8242352073372103e-14,0.0,1.6459755897521973,-0.016459748148918152,0.017618143931031227,-0.01645975559949875,7.450580596923828e-09,0.0,-0.004751381929963827,0.1876760721206665,0.9301435785498702,0.04881110414862633,0.6377396583557129,0.04405972361564636,0.7100775241851807,1.764014720916748,0.4896671772003174,,,,,,,
5240224000.0,71.75,-0.27000001072883606,12041169408.0,2224.906212495702,105.0,-0.0028643631376326084,434176.0,584.9633688926697,1.7706756200164264e-14,0.0,1.6976630687713623,-0.016976628452539444,0.020106002688407898,-0.016976630315184593,9.313225746154785e-10,0.0,0.0011630663648247719,0.20055042207241058,0.9376984283928791,-0.005825511179864407,0.7516734004020691,-0.004662444815039635,0.8034781217575073,1.8409764766693115,0.48987722396850586,,,,,,,
5240224000.0,73.44,-0.3199999928474426,12041169408.0,2271.8921797781277,106.0,-0.002195276552811265,438272.0,586.766271352768,1.6330686802845662e-14,0.0,1.647019386291504,-0.01647019200026989,0.021606914699077606,-0.01647019386291504,1.862645149230957e-09,0.0,-0.01029172446578741,0.20764979720115662,0.918490058231955,-0.0007510706782341003,0.662625253200531,-0.011042794212698936,0.727321207523346,1.8029024600982666,0.4899933338165283,,,,,,,
5240224000.0,75.86,-0.18000000715255737,12041169408.0,2273.6174049781484,107.0,-0.001185066532343626,442368.0,588.5678057670593,1.629946178027808e-14,0.0,1.7599753141403198,-0.017599761486053467,0.02271072007715702,-0.01759975217282772,-9.313225746154785e-09,0.0,0.013357965275645256,0.21273000538349152,0.9073725071785066,0.03466689959168434,0.6658802032470703,0.04802486672997475,0.6989704370498657,1.8015344142913818,0.49007105827331543,,,,,,,
5240224000.0,73.0,-0.27000001072883606,12041169408.0,2274.424691808474,108.0,-0.002884121146053076,446464.0,590.3687007427216,1.7080087344467643e-14,0.0,1.841820478439331,-0.018418220803141594,0.02129923738539219,-0.01841820403933525,-1.6763806343078613e-08,0.0,-0.020970284938812256,0.20535098016262054,0.9411512573681264,-0.09255559742450714,0.7902061343193054,-0.1135258823633194,0.8465023040771484,1.8008949756622314,0.48973870277404785,,,,,,,
5240224000.0,72.52,-0.3799999952316284,12041169408.0,2303.1213945921813,109.0,-0.0035696933045983315,450560.0,592.1471567153931,1.6865415314315513e-14,0.0,1.8443195819854736,-0.018443210050463676,0.014366773888468742,-0.018443195149302483,-1.4901161193847656e-08,0.0,0.00887767132371664,0.16929775476455688,0.9591067084363587,-0.0010752677917480469,0.836646318435669,0.00780240073800087,0.837192177772522,1.7784559726715088,0.4897763729095459,,,,,,,
5240224000.0,76.55,-0.2199999988079071,12041169408.0,2348.3160387242724,110.0,-0.0017030974850058556,454656.0,593.8913853168488,1.6323747908941755e-14,0.0,2.0069420337677,-0.020069420337677002,0.030140163376927376,-0.020069420337677002,0.0,0.0,0.0004938128404319286,0.2455500066280365,0.9128192871801879,-2.0495615899562836e-05,0.8371204733848572,0.0004733167588710785,0.83162921667099,1.7442286014556885,0.4912238121032715,,,,,,,
5240224000.0,73.12,-0.029999999329447746,12041169408.0,2173.7289799882556,111.0,0.0011946947779506445,458752.0,595.7757048606873,1.5775575290533084e-14,0.0,2.0474319458007812,-0.020474307239055634,0.032119013369083405,-0.02047431841492653,1.210719347000122e-08,0.0,0.02081165835261345,0.2526271641254425,0.8977156942310204,0.01084933988749981,0.8307862281799316,0.03166099637746811,0.7899062037467957,1.884319543838501,0.48999524116516113,,,,,,,
5240224000.0,69.98,-0.10000000149011612,12041169408.0,2252.965817868227,112.0,-0.002735270420089364,462848.0,597.593752861023,1.3428494427536464e-14,0.0,2.112915515899658,-0.021129140630364418,0.03193121403455734,-0.021129155531525612,1.4901161193847656e-08,0.0,0.01972058415412903,0.2519702613353729,0.8989092349125543,-0.09677957743406296,0.8358638286590576,-0.07705898582935333,0.7924896478652954,1.8180480003356934,0.4898557662963867,,,,,,,
5240224000.0,72.16,-0.05999999865889549,12041169408.0,2266.8598901026403,113.0,0.0011991211213171482,466944.0,599.4006576538086,1.4155343563970746e-14,0.0,2.132808208465576,-0.021328087896108627,0.02765871211886406,-0.02132808230817318,-5.587935447692871e-09,0.0,0.00337717542424798,0.23520103096961975,0.9035766322088872,0.1336539089679718,0.767214298248291,0.13703109323978424,0.7574397325515747,1.8069047927856445,0.4898965358734131,,,,,,,
5240224000.0,72.13,0.009999999776482582,12041169408.0,2165.0088534161905,114.0,-0.0013729787897318602,471040.0,601.2925667762756,1.4450246554886803e-14,0.0,2.154261589050293,-0.0215426255017519,0.03923273831605911,-0.021542616188526154,-9.313225746154785e-09,0.0,0.007328299339860678,0.2800552248954773,0.8814782947801563,0.01879422925412655,0.8143867254257202,0.026122527197003365,0.8134758472442627,1.891909122467041,0.4897925853729248,,,,,,,
5240224000.0,73.47,0.009999999776482582,12041169408.0,2279.775606799144,115.0,0.0010320569854229689,475136.0,603.089234828949,1.3189102587851664e-14,0.0,2.177773952484131,-0.021777743473649025,0.008852214552462101,-0.021777739748358727,-3.725290298461914e-09,0.0,-0.026079334318637848,0.1304931342601776,0.963363667023905,0.18839465081691742,0.6378512978553772,0.16231532394886017,0.6817601919174194,1.7966680526733398,0.49007225036621094,,,,,,,
5240224000.0,69.41,-0.03999999910593033,12041169408.0,2284.072921776953,116.0,-0.001206441200338304,479232.0,604.8825225830078,1.3523904218715188e-14,0.0,2.219266653060913,-0.022192658856511116,0.03871713951230049,-0.022192666307091713,7.450580596923828e-09,0.0,-0.03971825912594795,0.27545467019081116,0.8732952006499164,0.026423469185829163,0.6512252688407898,-0.013294786214828491,0.7738442420959473,1.793287754058838,0.48976945877075195,,,,,,,
5240224000.0,67.84,0.07000000029802322,12041169408.0,2269.274474404027,117.0,0.0012091996613889933,483328.0,606.6875047683716,1.2944506577738935e-14,0.0,2.2586095333099365,-0.022586090490221977,0.019085237756371498,-0.022586094215512276,3.725290298461914e-09,0.0,0.017140712589025497,0.1946430653333664,0.889967033146334,-0.008769124746322632,0.581290066242218,0.008371585980057716,0.5867829918861389,1.8049821853637695,0.4902322292327881,,,,,,,
5240224000.0,71.55,-0.09000000357627869,12041169408.0,2166.417322996493,118.0,-0.0020771606359630823,487424.0,608.578183889389,1.420738526825005e-14,0.0,2.2089226245880127,-0.022089218720793724,0.028386423364281654,-0.02208922617137432,7.450580596923828e-09,0.0,-0.018709156662225723,0.2375638782978058,0.8973763558371913,0.08747389912605286,0.6305621266365051,0.06876473128795624,0.7415777444839478,1.890679121017456,0.4903233051300049,,,,,,,
5240224000.0,74.78,-0.38999998569488525,12041169408.0,2327.4051583981964,119.0,-0.006931179203093052,491520.0,610.3380837440491,1.3647069585509541e-14,0.0,2.180894374847412,-0.021808944642543793,0.036162927746772766,-0.021808942779898643,-9.313225746154785e-10,0.0,-0.04377145320177078,0.2653810679912567,0.9089222062180373,-0.023363642394542694,0.7735045552253723,-0.06713510304689407,0.8793538212776184,1.7598998546600342,0.4902982711791992,,,,,,,
5240224000.0,74.89,-0.3400000035762787,12041169408.0,2319.0642550374564,120.0,0.0003472475800663233,495616.0,612.1043133735657,1.3584619540374376e-14,0.0,2.243561267852783,-0.022435620427131653,0.03776749223470688,-0.022435612976551056,-7.450580596923828e-09,0.0,-0.002285541035234928,0.27486035227775574,0.8216108134882255,0.06537074595689774,0.605377197265625,0.06308520585298538,0.6507704257965088,1.7662296295166016,0.48973679542541504,,,,,,,
5240224000.0,75.85,-0.11999999731779099,12041169408.0,2306.292034640287,121.0,-0.0036529190838336945,499712.0,613.8803243637085,1.3482270855291745e-14,0.0,2.2241482734680176,-0.02224147692322731,0.014797333627939224,-0.022241482511162758,5.587935447692871e-09,0.0,-0.0061388323083519936,0.17194242775440216,0.9430077106884341,-0.013494988903403282,0.6636585593223572,-0.01963382586836815,0.7202363610267639,1.7760109901428223,0.4898183345794678,,,,,,,
5240224000.0,74.68,-0.12999999523162842,12041169408.0,2215.2649400964847,122.0,0.0015685202088207006,503808.0,615.7293131351471,1.463586196681632e-14,0.0,2.178536891937256,-0.021785367280244827,0.02224249765276909,-0.021785369142889977,1.862645149230957e-09,0.0,0.020839348435401917,0.20990826189517975,0.9166965963708622,0.11051011830568314,0.7131967544555664,0.13134945929050446,0.7272740602493286,1.8489887714385986,0.4900345802307129,,,,,,,
5240224000.0,70.86,-0.07999999821186066,12041169408.0,2259.176189206263,123.0,-0.0019198034424334764,507904.0,617.5423634052277,1.5260362418167972e-14,0.0,2.1614186763763428,-0.021614180877804756,0.017366092652082443,-0.021614186465740204,5.587935447692871e-09,0.0,0.005578496493399143,0.1863049566745758,0.9437596033928457,-0.021529465913772583,0.7436023950576782,-0.015950972214341164,0.7855977416038513,1.8130502700805664,0.4900166988372803,,,,,,,
5240224000.0,72.4,-0.07000000029802322,12041169408.0,2244.2943716247964,124.0,0.0005245401989668608,512000.0,619.3674359321594,1.4023504579796509e-14,0.0,2.1249523162841797,-0.021249521523714066,0.01557642500847578,-0.021249523386359215,2.3283064365386963e-09,0.0,-0.002280972432345152,0.17650850117206573,0.9383002177551284,0.02613450400531292,0.6770520210266113,0.02385353110730648,0.7105977535247803,1.8250725269317627,0.49005746841430664,,,,,,,
5240224000.0,73.78,0.05999999865889549,12041169408.0,2304.8155427855104,125.0,0.0008758310577832162,516096.0,621.1445846557617,1.4181364416110398e-14,0.0,2.207995653152466,-0.022079961374402046,0.021006008610129356,-0.0220799557864666,-5.587935447692871e-09,0.0,0.0028550177812576294,0.20497345924377441,0.9241328897130222,0.10793442279100418,0.705496072769165,0.11078944057226181,0.7441678643226624,1.777148723602295,0.49001193046569824,,,,,,,
5240224000.0,73.74,0.10000000149011612,12041169408.0,2295.0817925019187,126.0,0.0,520192.0,622.9292705059052,1.439300068017957e-14,0.0,2.1122450828552246,-0.021122442558407784,0.017955711111426353,-0.02112245000898838,7.450580596923828e-09,0.0,0.020720461383461952,0.18838989734649658,0.9329962446445077,0.030241042375564575,0.7235811948776245,0.05096149817109108,0.7277932167053223,1.7846858501434326,0.48983168601989746,,,,,,,
5240224000.0,73.87,-0.20999999344348907,12041169408.0,2278.844203865522,127.0,-0.004041678737848997,524288.0,624.7266728878021,1.4335754805472334e-14,0.0,2.0987396240234375,-0.020987410098314285,0.022435897961258888,-0.02098739519715309,-1.4901161193847656e-08,0.0,0.012230649590492249,0.2115020751953125,0.9248432406164055,-0.03600650280714035,0.7755664587020874,-0.023775849491357803,0.7714905738830566,1.7974023818969727,0.4901144504547119,,,,,,,
,,,,,,,,,,,,,,,,,,,,,,,,,,0.001609967672266066,0.028417693451046944,0.024237288162112236,0.001609967672266066,0.028417693451046944,0.024237288162112236,
,,,,,,,,,,,,,,,,,,,,,,,,,,0.001251892768777907,0.02417507767677307,0.02320508286356926,0.001251892768777907,0.02417507767677307,0.02320508286356926,
,,,,,,,,,,,,,,,,,,,,,,,,,,0.001085556228645146,0.022126011550426483,0.02121034823358059,0.001085556228645146,0.022126011550426483,0.02121034823358059,
,,,,,,,,,,,,,,,,,,,,,,,,,,0.0010488128755241632,0.02236943133175373,0.021339187398552895,0.0010488128755241632,0.02236943133175373,0.021339187398552895,
,,,,,,,,,,,,,,,,,,,,,,,,,,0.0011323356302455068,0.021511076018214226,0.02011127956211567,0.0011323356302455068,0.021511076018214226,0.02011127956211567,
,,,,,,,,,,,,,,,,,,,,,,,,,,0.0011710249818861485,0.020796816796064377,0.01902962662279606,0.0011710249818861485,0.020796816796064377,0.01902962662279606,
,,,,,,,,,,,,,,,,,,,,,,,,,,,,,,,,-1.99
5240424000.0,77.52,-0.2199999988079071,11990521856.0,30.80603588870976,128.0,-0.0007043477380648255,528384.0,757.6876294612885,1.3971462875517204e-14,0.0,2.1370277404785156,-0.02137027308344841,0.011352036148309708,-0.02137027680873871,3.725290298461914e-09,0.0,-0.015109154395759106,0.14993757009506226,0.957161528764999,0.08501431345939636,0.6777850389480591,0.06990516185760498,0.7244251370429993,132.96095657348633,0.5061039924621582,,,,,,,
5240424000.0,78.69,-0.1599999964237213,12041169408.0,2297.3089700836745,129.0,-0.0015864085871726274,532480.0,759.4705851078033,1.3929829512093761e-14,0.0,2.1504602432250977,-0.0215046014636755,0.047868240624666214,-0.0215046014636755,0.0,0.0,0.0018832627683877945,0.30944517254829407,0.8083100620370487,-0.05793372541666031,0.6539053320884705,-0.05605045706033707,0.7067796587944031,1.7829556465148926,0.4899258613586426,,,,,,,
5240424000.0,75.58,-0.15000000596046448,12041169408.0,2269.6243325661735,130.0,-0.0012353837955743074,536576.0,761.2752890586853,1.3340023530261647e-14,0.0,2.216946601867676,-0.022169454023241997,0.02610441856086254,-0.022169465199112892,1.1175870895385742e-08,0.0,0.025609487667679787,0.2270805537700653,0.9086888522480687,-0.026592222973704338,0.7530930042266846,-0.000982740893959999,0.7514811158180237,1.804703950881958,0.4900069236755371,,,,,,,
5240424000.0,75.35,-0.3400000035762787,12041169408.0,2250.4873277473316,131.0,-0.00494605116546154,540672.0,763.0953392982483,1.3926360065141807e-14,0.0,2.1248929500579834,-0.02124893292784691,0.041552383452653885,-0.02124892920255661,-3.725290298461914e-09,0.0,-0.038943272083997726,0.28567132353782654,0.8683909179305995,-0.06276635825634003,0.727324366569519,-0.10170963406562805,0.7874513864517212,1.8200502395629883,0.4900679588317871,,,,,,,
5240424000.0,70.24,-0.23999999463558197,12041169408.0,2209.2410484227403,132.0,0.0001769408117979765,544768.0,764.9493696689606,1.4032178197176393e-14,0.0,2.1363091468811035,-0.02136310562491417,0.027675122022628784,-0.021363090723752975,-1.4901161193847656e-08,0.0,0.027615178376436234,0.2336685061454773,0.8671907499367181,-0.033871397376060486,0.6337750554084778,-0.006256216671317816,0.6411889791488647,1.8540303707122803,0.48990511894226074,,,,,,,
5240424000.0,72.71,-0.009999999776482582,12041169408.0,2281.3192372049616,133.0,0.0008863323600962758,548864.0,766.7448220252991,1.3454515279676116e-14,0.0,2.2118523120880127,-0.02211851440370083,0.011064685881137848,-0.022118521854281425,7.450580596923828e-09,0.0,0.0038646026514470577,0.1487273871898651,0.9500854179760976,0.08443082123994827,0.6390721201896667,0.08829542249441147,0.6656979918479919,1.795452356338501,0.4898808002471924,,,,,,,
5240424000.0,76.92,-0.14000000059604645,12041169408.0,2177.5725286106435,134.0,-0.0035511089954525232,552960.0,768.6258156299591,1.3570741752566562e-14,0.0,2.218461275100708,-0.02218460477888584,0.01940751075744629,-0.02218461222946644,7.450580596923828e-09,0.0,-0.015764806419610977,0.1964075267314911,0.9276213986324894,-0.015501363202929497,0.6754733324050903,-0.031266167759895325,0.7300507426261902,1.8809936046600342,0.49018001556396484,,,,,,,
5240424000.0,72.87,-0.47999998927116394,12041169408.0,2367.829739892336,135.0,-0.006041053682565689,557056.0,770.3556697368622,1.4073811560599836e-14,0.0,2.1964316368103027,-0.021964311599731445,0.03332524001598358,-0.021964315325021744,4.6566128730773926e-09,0.0,-0.0024817329831421375,0.2581871449947357,0.8993472090618762,-0.10105198621749878,0.7453375458717346,-0.10353372991085052,0.813807487487793,1.7298541069030762,0.48987483978271484,,,,,,,
5240424000.0,71.46,-0.23000000417232513,12041169408.0,2314.4971863421533,136.0,0.0014244894264265895,561152.0,772.1253845691681,1.3312267954646018e-14,0.0,2.17116641998291,-0.021711664274334908,0.004841115325689316,-0.021711664274334908,0.0,0.0,0.003284821752458811,0.0983554944396019,0.9696949062965301,0.033574432134628296,0.5425846576690674,0.03685925155878067,0.5649900436401367,1.7697148323059082,0.48999452590942383,,,,,,,
5240424000.0,71.29,-0.23000000417232513,12041169408.0,2242.3349781599086,137.0,-0.0058810035698115826,565248.0,773.9520518779755,1.4733006481471023e-14,0.0,2.1493091583251953,-0.021493081003427505,0.026272043585777283,-0.02149309031665325,1.0244548320770264e-08,0.0,-0.0012313943589106202,0.22924964129924774,0.9320974939459452,-0.07856234163045883,0.8172086477279663,-0.07979373633861542,0.879763126373291,1.826667308807373,0.48963356018066406,,,,,,,
5240424000.0,73.15,-0.17000000178813934,12041169408.0,2302.0119555459078,138.0,0.0008927843300625682,569344.0,775.7313649654388,1.439733748886951e-14,0.0,2.1233506202697754,-0.021233510226011276,0.01222686842083931,-0.021233506500720978,-3.725290298461914e-09,0.0,0.01624566689133644,0.15554973483085632,0.9343005344794624,0.06343324482440948,0.6015418171882629,0.07967890799045563,0.6068597435951233,1.779313087463379,0.4899740219116211,,,,,,,
5240424000.0,76.39,-0.05999999865889549,12041169408.0,2239.3300499134566,139.0,-0.0010729311034083366,573440.0,777.560483455658,1.59837421076503e-14,0.0,2.1145682334899902,-0.02114568091928959,0.006077159196138382,-0.021145682781934738,1.862645149230957e-09,0.0,0.022386375814676285,0.10796303302049637,0.9797140994928493,0.05532243475317955,0.7570177316665649,0.07770881056785583,0.7580152153968811,1.8291184902191162,0.4902222156524658,,,,,,,
5240424000.0,75.09,-0.05999999865889549,12041169408.0,2206.953599025336,140.0,0.0012543977936729789,577536.0,779.4164354801178,1.445718544879071e-14,0.0,2.09774112701416,-0.020977407693862915,0.023930292576551437,-0.020977411419153214,3.725290298461914e-09,0.0,0.00951108057051897,0.21859046816825867,0.8681806775871097,0.08427003026008606,0.5803438425064087,0.09378111362457275,0.6020625829696655,1.8559520244598389,0.48980116844177246,,,,,,,
5240424000.0,75.32,0.10000000149011612,12041169408.0,2114.575565757893,141.0,0.0,581632.0,781.3534672260284,1.6289487120291213e-14,0.0,2.090977907180786,-0.020909782499074936,0.0107098538428545,-0.020909778773784637,-3.725290298461914e-09,0.0,-0.007371735759079456,0.14618679881095886,0.9452775332594457,0.049138568341732025,0.5966933965682983,0.04176683351397514,0.6249213218688965,1.9370317459106445,0.489713191986084,,,,,,,
5240424000.0,71.7,-0.05999999865889549,12041169408.0,2243.6173216411858,142.0,-0.00035971077159047127,585728.0,783.1790904998779,1.7751425329670667e-14,0.0,2.05816650390625,-0.020581666380167007,0.02274302765727043,-0.020581664517521858,-1.862645149230957e-09,0.0,0.018200907856225967,0.212522491812706,0.9097070107051793,-0.014924721792340279,0.6835181713104248,0.0032761823385953903,0.7072580456733704,1.8256232738494873,0.4896516799926758,,,,,,,
5240424000.0,68.47,-0.07000000029802322,12041169408.0,2228.1634986427944,143.0,-0.001440111082047224,589824.0,785.0173757076263,1.8261867712476842e-14,0.0,2.069636344909668,-0.0206963662058115,0.0272406954318285,-0.020696362480521202,-3.725290298461914e-09,0.0,0.01318136602640152,0.23306845128536224,0.9167150077284568,-0.04709693044424057,0.7846066355705261,-0.03391556441783905,0.807607114315033,1.838285207748413,0.49005556106567383,,,,,,,
5240424000.0,71.68,-0.20000000298023224,12041169408.0,2179.8146590226233,144.0,-0.0016225837171077728,593920.0,786.896434545517,1.771456245580616e-14,0.0,2.0666918754577637,-0.020666906610131264,0.015824120491743088,-0.02066691778600216,1.1175870895385742e-08,0.0,-0.016014888882637024,0.1771988570690155,0.9433570511342718,0.1503552943468094,0.731515645980835,0.13434040546417236,0.7445399165153503,1.879058837890625,0.4900360107421875,,,,,,,
5240424000.0,74.98,-0.10000000149011612,12041169408.0,2184.0192876559636,145.0,0.0009030381916090846,598016.0,788.7718758583069,1.7822548992185716e-14,0.0,2.0364489555358887,-0.020364494994282722,0.0059451088309288025,-0.020364489406347275,-5.587935447692871e-09,0.0,0.013315796852111816,0.10823939740657806,0.9736040939092684,0.06922302395105362,0.6707180142402649,0.08253881335258484,0.6662191152572632,1.875441312789917,0.49088573455810547,,,,,,,
5240424000.0,70.58,0.10999999940395355,12041169408.0,2238.6901222714614,146.0,0.0019902982749044895,602112.0,790.60151720047,1.7159884624362576e-14,0.0,2.0409207344055176,-0.02040921151638031,0.011930208653211594,-0.02040920779109001,-3.725290298461914e-09,0.0,0.002062306273728609,0.15447326004505157,0.933862444062098,0.09476429969072342,0.5883371829986572,0.09682660549879074,0.6006608009338379,1.829641342163086,0.4898977279663086,,,,,,,
5240424000.0,74.6,0.05999999865889549,12041169408.0,2234.1641917712946,147.0,0.0,606208.0,792.4348649978638,1.923591494423782e-14,0.0,2.03651762008667,-0.02036517858505249,0.020771503448486328,-0.020365174859762192,-3.725290298461914e-09,0.0,-0.018356282263994217,0.20301753282546997,0.9192439923013832,0.13671816885471344,0.6667498350143433,0.11836189031600952,0.7144076824188232,1.8333477973937988,0.4900541305541992,,,,,,,
5240424000.0,79.34,-0.009999999776482582,12041169408.0,2242.159388728926,148.0,0.00018150405958294868,610304.0,794.2616753578186,1.8990017891518107e-14,0.0,2.0552639961242676,-0.020552638918161392,0.01825060322880745,-0.020552638918161392,0.0,0.0,-0.003322521224617958,0.1910473257303238,0.9304351184091482,0.11832428723573685,0.7156618237495422,0.11500176042318344,0.7243458032608032,1.826810359954834,0.48973655700683594,,,,,,,
5240424000.0,78.94,-0.009999999776482582,12041169408.0,2305.317498714152,149.0,-0.00018184140208177269,614400.0,796.038437128067,1.8540724511240114e-14,0.0,1.9950873851776123,-0.0199508648365736,0.00948773417621851,-0.019950874149799347,9.313225746154785e-09,0.0,-0.015330805443227291,0.13691242039203644,0.9539885836280446,0.1545761227607727,0.6151428818702698,0.13924531638622284,0.6382783055305481,1.776761770248413,0.4901547431945801,,,,,,,
5240424000.0,75.46,-0.019999999552965164,12041169408.0,2260.530221269172,150.0,-0.0007283019367605448,618496.0,797.8504014015198,1.9837430309532778e-14,0.0,2.033381700515747,-0.020333824679255486,0.007570238783955574,-0.02033381722867489,-7.450580596923828e-09,0.0,0.007976066321134567,0.12280285358428955,0.9725200558935687,0.06158986687660217,0.7406732439994812,0.06956592947244644,0.7407993078231812,1.8119642734527588,0.48998355865478516,,,,,,,
5240424000.0,77.05,0.09000000357627869,12041169408.0,2314.175752345209,151.0,0.0021884848829358816,622592.0,799.6203620433807,1.924415488074871e-14,0.0,1.999923825263977,-0.01999923773109913,0.01795680820941925,-0.01999923773109913,0.0,0.0,0.01511757355183363,0.1889280080795288,0.91177131869623,0.1331675946712494,0.6183979511260986,0.1482851654291153,0.636050283908844,1.769960641860962,0.48984646797180176,,,,,,,
5240424000.0,80.39,0.1599999964237213,12041169408.0,2269.117118373662,152.0,0.0009127666708081961,626688.0,801.4254693984985,2.146937141955796e-14,0.0,2.067549705505371,-0.02067551016807556,0.05944335460662842,-0.020675497129559517,-1.30385160446167e-08,0.0,-0.04415480047464371,0.34200236201286316,0.7063130108970932,0.19787970185279846,0.5102256536483765,0.15372490882873535,0.6310834288597107,1.8051073551177979,0.4898691177368164,,,,,,,
5240424000.0,76.98,0.2199999988079071,12041169408.0,2212.5976305191402,153.0,0.003472527489066124,630784.0,803.2766871452332,1.7755328457491615e-14,0.0,2.0714712142944336,-0.020714711397886276,0.01568380557000637,-0.020714711397886276,0.0,0.0,0.034058600664138794,0.17382460832595825,0.931580151215066,0.03892572969198227,0.6547516584396362,0.07298432290554047,0.664538562297821,1.8512177467346191,0.4901001453399658,,,,,,,
5240424000.0,71.49,-0.07000000029802322,12041169408.0,2175.482653622789,154.0,-0.004025123547762632,634880.0,805.1594877243042,1.7941377550290127e-14,0.0,2.003903388977051,-0.0200390312820673,0.003299679607152939,-0.020039033144712448,1.862645149230957e-09,0.0,0.002629003720358014,0.08120380342006683,0.9896993661424826,-0.02956264093518257,0.7889696359634399,-0.026933632791042328,0.8001002073287964,1.882800579071045,0.4898488521575928,,,,,,,
5240424000.0,72.71,-0.2199999988079071,12041169408.0,2218.455076265462,155.0,-0.00018322770483791828,638976.0,807.0058176517487,1.788586639905887e-14,0.0,2.102921485900879,-0.021029209718108177,0.01531149074435234,-0.021029215306043625,5.587935447692871e-09,0.0,0.01890948787331581,0.17399081587791443,0.9346973221248113,-0.009237508289515972,0.6479200124740601,0.009671978652477264,0.6808647513389587,1.846329927444458,0.4898250102996826,,,,,,,
5240424000.0,74.16,0.029999999329447746,12041169408.0,2321.2428964089504,156.0,0.0018338642548769712,643072.0,808.7703895568848,1.802204219192305e-14,0.0,2.063957452774048,-0.020639583468437195,0.030676694586873055,-0.02063957415521145,-9.313225746154785e-09,0.0,0.013990663923323154,0.247330904006958,0.8705785567320635,0.014876049943268299,0.6125856637954712,0.028866712003946304,0.6875041127204895,1.7645719051361084,0.49039459228515625,,,,,,,
5240424000.0,74.86,0.33000001311302185,12041169408.0,2245.0665898616307,157.0,0.004960786551237106,647168.0,810.5948343276978,1.7849437206063357e-14,0.0,2.124359607696533,-0.02124360017478466,0.008105619810521603,-0.021243596449494362,-3.725290298461914e-09,0.0,0.02546836994588375,0.12476538866758347,0.9383006447676727,0.19261538982391357,0.4819808006286621,0.21808375418186188,0.5022892355918884,1.8244447708129883,0.48993539810180664,,,,,,,
5240424000.0,78.26,0.20999999344348907,12041169408.0,2323.3392270145555,158.0,-0.001655426574870944,651264.0,812.3578140735626,1.5694043287162174e-14,0.0,2.1379709243774414,-0.02137969806790352,0.005992801859974861,-0.021379709243774414,1.1175870895385742e-08,0.0,0.01277967169880867,0.10874360054731369,0.9797944958263528,-0.0007639415562152863,0.7474778294563293,0.012015734799206257,0.7650131583213806,1.7629797458648682,0.4897580146789551,,,,,,,
5240424000.0,73.45,-0.23999999463558197,12041169408.0,2255.05306161881,159.0,-0.002761582378298044,655360.0,814.174179315567,1.708182206794362e-14,0.0,2.1723921298980713,-0.021723933517932892,0.005295703187584877,-0.021723920479416847,-1.210719347000122e-08,0.0,0.009191814810037613,0.10251576453447342,0.9840313724024314,0.008930925279855728,0.7975028157234192,0.018122730776667595,0.81125408411026,1.8163652420043945,0.4900965690612793,,,,,,,
,,,,,,,,,,,,,,,,,,,,,,,,,,0.00242823688313365,0.02424502559006214,0.02144772931933403,0.00242823688313365,0.02424502559006214,0.02144772931933403,
,,,,,,,,,,,,,,,,,,,,,,,,,,0.001033414388075471,0.020417513325810432,0.019230179488658905,0.001033414388075471,0.020417513325810432,0.019230179488658905,
,,,,,,,,,,,,,,,,,,,,,,,,,,0.0009654483874328434,0.01997760683298111,0.01900586485862732,0.0009654483874328434,0.01997760683298111,0.01900586485862732,
,,,,,,,,,,,,,,,,,,,,,,,,,,0.0010504662059247494,0.019669942557811737,0.018354130908846855,0.0010504662059247494,0.019669942557811737,0.018354130908846855,
,,,,,,,,,,,,,,,,,,,,,,,,,,0.0007674258085899055,0.018499743193387985,0.01682080514729023,0.0007674258085899055,0.018499743193387985,0.01682080514729023,
,,,,,,,,,,,,,,,,,,,,,,,,,,0.0010839956812560558,0.01825522817671299,0.016378754749894142,0.0010839956812560558,0.01825522817671299,0.016378754749894142,
,,,,,,,,,,,,,,,,,,,,,,,,,,,,,,,,-1.36
5240424000.0,72.91,-0.17000000178813934,11990521856.0,30.827226285306306,160.0,-0.00018439890118315816,659456.0,947.0437395572662,1.4387796509751638e-14,0.0,2.154322385787964,-0.021543214097619057,0.00944200437515974,-0.021543223410844803,9.313225746154785e-09,0.0,-0.0030194700229912996,0.13740268349647522,0.9570819694713465,0.07011975347995758,0.622908890247345,0.06710028648376465,0.6632471084594727,132.86956024169922,0.5021576881408691,,,,,,,
5240424000.0,76.48,0.009999999776482582,12041169408.0,2330.4897231810205,161.0,0.002215241314843297,663552.0,948.8013100624084,1.4688771032833614e-14,0.0,2.2423441410064697,-0.02242344245314598,0.009785383939743042,-0.02242344059050083,-2.3283064365386963e-09,0.0,0.038926925510168076,0.13438701629638672,0.964717051388147,0.06859108060598373,0.7155302166938782,0.10751800239086151,0.7154427766799927,1.757570505142212,0.4902658462524414,,,,,,,
5240424000.0,80.0,0.25999999046325684,12041169408.0,2184.7894744740124,162.0,0.0033282258082181215,667648.0,950.6760902404785,1.3994014280704903e-14,0.0,2.23190975189209,-0.022319093346595764,0.01746530830860138,-0.022319097071886063,3.725290298461914e-09,0.0,0.01645057648420334,0.18619465827941895,0.8813038725819063,0.1395702362060547,0.5186055898666382,0.15602082014083862,0.5404419302940369,1.8747801780700684,0.49004197120666504,,,,,,,
5240424000.0,84.61,0.3100000023841858,12041169408.0,2299.64328272161,163.0,0.001666286843828857,671744.0,952.4572360515594,1.3717325886286602e-14,0.0,2.283970355987549,-0.022839706391096115,0.007330995984375477,-0.022839702665805817,-3.725290298461914e-09,0.0,0.020681224763393402,0.11932206153869629,0.9679133277147834,0.0821305364370346,0.6527913808822632,0.10281176120042801,0.6661291122436523,1.7811458110809326,0.4899919033050537,,,,,,,
5240424000.0,84.53,0.20000000298023224,12041169408.0,2298.6515969595484,164.0,0.0020396774634718895,675840.0,954.2391502857208,1.45924938799169e-14,0.0,2.2878634929656982,-0.022878633812069893,0.0057601723819971085,-0.022878633812069893,0.0,0.0,0.008341419510543346,0.10702131688594818,0.9699767257861477,0.21904736757278442,0.6135642528533936,0.22738878428936005,0.6176483035087585,1.781914234161377,0.4898998737335205,,,,,,,
5240424000.0,84.07,0.1899999976158142,12041169408.0,2337.8332453577395,165.0,0.0005567502230405807,679936.0,955.9911999702454,1.4240778695162604e-14,0.0,2.261461019515991,-0.02261461690068245,0.00707562081515789,-0.022614609450101852,-7.450580596923828e-09,0.0,0.015746034681797028,0.11792666465044022,0.9774596944420592,0.08629882335662842,0.7907204031944275,0.10204485803842545,0.7854745388031006,1.7520496845245361,0.48993754386901855,,,,,,,
5240424000.0,83.03,0.05999999865889549,12041169408.0,2142.741760484049,166.0,-0.0013004651991650462,684032.0,957.9027695655823,1.4762930461431623e-14,0.0,2.258741617202759,-0.022587411105632782,0.013138961046934128,-0.02258741483092308,3.725290298461914e-09,0.0,-0.0008388198912143707,0.16212227940559387,0.9566158433084518,0.08544573932886124,0.7520008683204651,0.08460691571235657,0.7783539891242981,1.911569595336914,0.4902060031890869,,,,,,,
5240424000.0,78.79,-0.25,12041169408.0,2234.813453315198,167.0,-0.004091878421604633,688128.0,959.7355847358704,1.3463188897056e-14,0.0,2.20761775970459,-0.022076182067394257,0.01392869371920824,-0.02207617647945881,-5.587935447692871e-09,0.0,-0.01772669330239296,0.16598156094551086,0.9532205437446616,0.01165471225976944,0.7553598284721375,-0.0060719819739460945,0.7674184441566467,1.832815170288086,0.4896864891052246,,,,,,,
5240424000.0,75.18,-0.2199999988079071,12041169408.0,2213.184520318232,168.0,0.0022350926883518696,692224.0,961.5863115787506,1.4939438575112263e-14,0.0,2.243800401687622,-0.02243799902498722,0.005459144711494446,-0.02243800275027752,3.725290298461914e-09,0.0,0.014079155400395393,0.10355039685964584,0.974571471953891,0.19484466314315796,0.6397073268890381,0.2089238315820694,0.6493684649467468,1.850726842880249,0.4897761344909668,,,,,,,
5240424000.0,85.06,0.15000000596046448,12041169408.0,2209.481988790716,169.0,-0.00018640921916812658,696320.0,963.4401397705078,1.5795524610506817e-14,0.0,2.242967367172241,-0.022429676726460457,0.0056618270464241505,-0.02242967300117016,-3.725290298461914e-09,0.0,0.004985413514077663,0.10630879551172256,0.983493535463232,0.1433086395263672,0.8288792371749878,0.14829404652118683,0.827450692653656,1.8538281917572021,0.48990678787231445,,,,,,,
5240424000.0,89.65,0.1599999964237213,12041169408.0,2188.1749493582665,170.0,0.0009333695052191615,700416.0,965.3120193481445,1.4769435674466536e-14,0.0,2.2441532611846924,-0.022441532462835312,0.007875790819525719,-0.022441532462835312,0.0,0.0,0.007539679296314716,0.12529392540454865,0.9644944577027784,0.2372148185968399,0.6652083992958069,0.24475450813770294,0.6649391651153564,1.8718795776367188,0.4898967742919922,,,,,,,
5240424000.0,83.74,0.10999999940395355,12041169408.0,2261.1832928080926,171.0,0.0003737339866347611,704512.0,967.1234602928162,1.550365738567372e-14,0.0,2.1982836723327637,-0.021982833743095398,0.006302217021584511,-0.021982835605740547,1.862645149230957e-09,0.0,0.009120695292949677,0.11191203445196152,0.9771201996404172,0.09619931876659393,0.741270899772644,0.10532001405954361,0.7398619651794434,1.8114409446716309,0.48987650871276855,,,,,,,
5240424000.0,85.14,-0.009999999776482582,12041169408.0,2208.7013963393133,172.0,-0.0016830763779580593,708608.0,968.9779436588287,1.5314138845923253e-14,0.0,2.2286877632141113,-0.022286877036094666,0.02526772767305374,-0.022286877036094666,0.0,0.0,-0.006837539374828339,0.22472435235977173,0.912411210161415,0.10680293291807175,0.7473835945129395,0.09996539354324341,0.7593218088150024,1.8544833660125732,0.4899106025695801,,,,,,,
5240424000.0,82.39,-0.25999999046325684,12041169408.0,2274.644522387876,173.0,-0.003368346719071269,712704.0,970.7786645889282,1.6264767310758543e-14,0.0,2.2068324089050293,-0.022068321704864502,0.026606116443872452,-0.02206832356750965,1.862645149230957e-09,0.0,-0.01762920245528221,0.23003122210502625,0.9277029406365226,0.10954180359840393,0.8466244339942932,0.09191261231899261,0.8555127382278442,1.8007209300994873,0.489851713180542,,,,,,,
5240424000.0,80.74,-0.1899999976158142,12041169408.0,2207.397379524396,174.0,0.0007492658914998174,716800.0,972.6342434883118,1.5364012145857586e-14,0.0,2.172637462615967,-0.02172636240720749,0.051328226923942566,-0.021726373583078384,1.1175870895385742e-08,0.0,-0.04166731238365173,0.3177183270454407,0.7919830085956976,0.1282627433538437,0.6495990753173828,0.08659543097019196,0.6966150999069214,1.855578899383545,0.4896814823150635,,,,,,,
5240424000.0,75.58,-0.05000000074505806,12041169408.0,2295.048373255189,175.0,-0.0011247920338064432,720896.0,974.4189553260803,1.6455586893115992e-14,0.0,2.2243423461914062,-0.02224341221153736,0.004598120227456093,-0.022243423387408257,1.1175870895385742e-08,0.0,0.014990856871008873,0.09472964704036713,0.9828021622288181,0.09720844030380249,0.709705114364624,0.11219930648803711,0.7223522067070007,1.7847118377685547,0.48996734619140625,,,,,,,
5240424000.0,82.92,0.14000000059604645,12041169408.0,2233.8321505505114,176.0,0.004694842733442783,724992.0,976.25257563591,1.6127724156156376e-14,0.0,2.2012603282928467,-0.02201259881258011,0.005673752166330814,-0.022012602537870407,3.725290298461914e-09,0.0,0.024784263223409653,0.10361401736736298,0.9498548244935588,0.2369976043701172,0.4439378082752228,0.26178187131881714,0.46270474791526794,1.833620309829712,0.48969435691833496,,,,,,,
5240424000.0,90.78,0.3799999952316284,12041169408.0,2210.7472194623415,177.0,0.004514469765126705,729088.0,978.1053428649902,1.6216628734300187e-14,0.0,2.216346263885498,-0.022163471207022667,0.004413710907101631,-0.02216346189379692,-9.313225746154785e-09,0.0,0.019025038927793503,0.0920192152261734,0.9708903450843369,0.253548264503479,0.5172249674797058,0.2725732922554016,0.5393367409706116,1.8527672290802002,0.4897921085357666,,,,,,,
5240424000.0,88.85,0.2800000011920929,12041169408.0,2302.1982789395765,178.0,0.00113009219057858,733184.0,979.8845119476318,1.6365381272365198e-14,0.0,2.2429463863372803,-0.022429458796977997,0.004731207154691219,-0.022429462522268295,3.725290298461914e-09,0.0,0.017340267077088356,0.09572861343622208,0.9777361449945605,0.1302260458469391,0.6178034543991089,0.1475663036108017,0.6415663957595825,1.7791690826416016,0.49005126953125,,,,,,,
5240424000.0,88.45,0.3499999940395355,12041169408.0,2208.0964475082123,179.0,0.003960003145039082,737280.0,981.7395033836365,1.6092596005767845e-14,0.0,2.2061972618103027,-0.022061975672841072,0.006209234707057476,-0.022061971947550774,-3.725290298461914e-09,0.0,0.020099611952900887,0.10962393879890442,0.9686260718142798,0.16028007864952087,0.585655689239502,0.1803796887397766,0.6189006567001343,1.8549914360046387,0.48978734016418457,,,,,,,
5240424000.0,86.94,0.5299999713897705,12041169408.0,2155.9338306492295,180.0,0.0049106404185295105,741376.0,983.6393761634827,1.597940529896036e-14,0.0,2.2509045600891113,-0.022509032860398293,0.004800835624337196,-0.022509045898914337,1.30385160446167e-08,0.0,0.026933638378977776,0.09422535449266434,0.9613168512821361,0.23174259066581726,0.4524993598461151,0.2586762309074402,0.4790787696838379,1.8998727798461914,0.48993992805480957,,,,,,,
5240424000.0,82.9,0.3400000035762787,12041169408.0,2195.3979334733135,181.0,0.0030251694843173027,745472.0,985.5050971508026,1.4971964640286828e-14,0.0,2.212862491607666,-0.022128628566861153,0.0041436669416725636,-0.022128624841570854,-3.725290298461914e-09,0.0,0.017188236117362976,0.08940833061933517,0.9824456487557622,0.11235342919826508,0.6480174660682678,0.12954166531562805,0.6748162508010864,1.8657209873199463,0.4899880886077881,,,,,,,
5240424000.0,75.85,0.3799999952316284,12041169408.0,2281.9398208836274,182.0,0.005111793056130409,749568.0,987.3000612258911,1.5916087892087205e-14,0.0,2.2333436012268066,-0.022333446890115738,0.0044920314103364944,-0.022333435714244843,-1.210719347000122e-08,0.0,0.01506007369607687,0.09359163790941238,0.9736499137617932,0.1876344084739685,0.5530936121940613,0.20269449055194855,0.5765620470046997,1.794964075088501,0.48990345001220703,,,,,,,
5240424000.0,76.03,0.23999999463558197,12041169408.0,2262.604393911098,183.0,0.00018949643708765507,753664.0,989.1103644371033,1.4983240342880677e-14,0.0,2.223439931869507,-0.022234397009015083,0.003973053768277168,-0.022234398871660233,1.862645149230957e-09,0.0,0.006340965628623962,0.08892598003149033,0.9863688038684011,0.19467197358608246,0.7481326460838318,0.20101293921470642,0.7616609334945679,1.8103032112121582,0.4897494316101074,,,,,,,
5240424000.0,89.46,0.23000000417232513,12041169408.0,2273.6499020986425,184.0,0.0024658185429871082,757760.0,990.9118731021881,1.510423730533006e-14,0.0,2.2592995166778564,-0.022592995315790176,0.006836485117673874,-0.022592995315790176,0.0,0.0,-0.0013341732556000352,0.11693814396858215,0.9746340260784077,0.20217424631118774,0.7203732132911682,0.2008400708436966,0.7342271208763123,1.8015086650848389,0.490222692489624,,,,,,,
5240424000.0,82.81,0.14000000059604645,12041169408.0,2293.153960165557,185.0,-0.0007592728361487389,761856.0,992.6980593204498,1.4854870805658393e-14,0.0,2.249065637588501,-0.022490650415420532,0.004305349662899971,-0.02249065600335598,5.587935447692871e-09,0.0,-0.004434706177562475,0.09269914776086807,0.9866252987099833,0.12908029556274414,0.7993524074554443,0.12464557588100433,0.8015556335449219,1.7861862182617188,0.48996543884277344,,,,,,,
5240424000.0,75.9,0.15000000596046448,12041169408.0,2310.8758587497987,186.0,0.003041492775082588,765952.0,994.4705474376678,1.3981871216373065e-14,0.0,2.3061137199401855,-0.02306113950908184,0.005700828041881323,-0.023061135783791542,-3.725290298461914e-09,0.0,0.001016589580103755,0.10678673535585403,0.9744852133284275,0.2719019055366516,0.6683921217918396,0.2729185223579407,0.6685306429862976,1.7724881172180176,0.4899563789367676,,,,,,,
5240424000.0,84.49,0.20999999344348907,12041169408.0,2326.2681113470344,187.0,0.0015217794571071863,770048.0,996.2313075065613,1.5236076289504297e-14,0.0,2.295762062072754,-0.022957615554332733,0.00799771398305893,-0.02295761927962303,3.725290298461914e-09,0.0,-0.005865239538252354,0.12635238468647003,0.9781356332785511,0.28231677412986755,0.8529255390167236,0.2764515280723572,0.8545057773590088,1.7607600688934326,0.4897470474243164,,,,,,,
5240424000.0,88.1,0.15000000596046448,12041169408.0,2265.1481862525025,188.0,0.00266678212210536,774144.0,998.0395777225494,1.3905543383430086e-14,0.0,2.340773344039917,-0.02340773493051529,0.007661763578653336,-0.02340773306787014,-1.862645149230957e-09,0.0,0.003684077877551317,0.12374851107597351,0.9611968401364714,0.33884885907173157,0.6124234199523926,0.3425329327583313,0.6282123327255249,1.8082702159881592,0.48990797996520996,,,,,,,
5240424000.0,89.65,0.20000000298023224,12041169408.0,2215.653204042063,189.0,0.0005719967884942889,778240.0,999.888242483139,1.3371248552829229e-14,0.0,2.3457984924316406,-0.0234579686075449,0.019338984042406082,-0.023457983508706093,1.4901161193847656e-08,0.0,-0.018379095941781998,0.19583038985729218,0.9332881373967398,0.2768673300743103,0.7553935050964355,0.2584882378578186,0.7581908702850342,1.8486647605895996,0.4900217056274414,,,,,,,
5240424000.0,88.59,0.3799999952316284,12041169408.0,2194.941016451962,190.0,0.005152878817170858,782336.0,1001.7543518543243,1.4605070625117733e-14,0.0,2.3076412677764893,-0.02307642064988613,0.007474666461348534,-0.023076411336660385,-9.313225746154785e-09,0.0,-0.005959867034107447,0.12213703989982605,0.9727405221441254,0.36302512884140015,0.736361026763916,0.35706526041030884,0.739756166934967,1.8661093711853027,0.49005866050720215,,,,,,,
5240424000.0,88.47,0.5,12041169408.0,2285.5548750870894,191.0,0.002865757793188095,786432.0,1003.5464768409729,1.4804130143986072e-14,0.0,2.3012514114379883,-0.023012518882751465,0.017601678147912025,-0.023012513294816017,-5.587935447692871e-09,0.0,-0.021311359480023384,0.1864340752363205,0.9349321335398796,0.32126379013061523,0.7076466679573059,0.2999523878097534,0.7308732271194458,1.7921249866485596,0.48978328704833984,,,,,,,
,,,,,,,,,,,,,,,,,,,,,,,,,,0.002606114139780402,0.014445698820054531,0.012586760334670544,0.002606114139780402,0.014445698820054531,0.012586760334670544,
,,,,,,,,,,,,,,,,,,,,,,,,,,0.0019595830235630274,0.01189974695444107,0.0107404300943017,0.0019595830235630274,0.01189974695444107,0.0107404300943017,
,,,,,,,,,,,,,,,,,,,,,,,,,,0.0014559081755578518,0.010898802429437637,0.01023793127387762,0.0014559081755578518,0.010898802429437637,0.01023793127387762,
,,,,,,,,,,,,,,,,,,,,,,,,,,0.0013410707470029593,0.01027711108326912,0.009835503064095974,0.0013410707470029593,0.01027711108326912,0.009835503064095974,
,,,,,,,,,,,,,,,,,,,,,,,,,,0.001059025526046753,0.010062433779239655,0.009272035211324692,0.001059025526046753,0.010062433779239655,0.009272035211324692,
,,,,,,,,,,,,,,,,,,,,,,,,,,0.001011842512525618,0.00992340687662363,0.009084858931601048,0.001011842512525618,0.00992340687662363,0.009084858931601048,
,,,,,,,,,,,,,,,,,,,,,,,,,,,,,,,,-1.71
5240616000.0,85.44,0.20999999344348907,11990521856.0,30.806794956952384,192.0,-0.0009560718899592757,790528.0,1136.5041573047638,1.3700846013264822e-14,0.0,2.298220634460449,-0.022982200607657433,0.008664648048579693,-0.02298220619559288,5.587935447692871e-09,0.0,0.006752724293619394,0.1314835250377655,0.9714660820493489,0.1289082020521164,0.7469092607498169,0.13566093146800995,0.7783781886100769,132.9576804637909,0.509993314743042,,,,,,,
5240616000.0,80.25,-0.05999999865889549,12041169408.0,2155.2936238577518,193.0,-0.0005739565822295845,794624.0,1138.4045944213867,1.4564738304301272e-14,0.0,2.281548023223877,-0.02281547710299492,0.014054189436137676,-0.022815478965640068,1.862645149230957e-09,0.0,-0.0062139593064785,0.16756080090999603,0.9544227478196031,0.09322455525398254,0.7457236647605896,0.08701058477163315,0.7848711013793945,1.9004371166229248,0.48949575424194336,,,,,,,
5240616000.0,79.59,-0.11999999731779099,12041169408.0,2211.3519139795576,194.0,0.0001915327738970518,798720.0,1140.2568550109863,1.4530043834781736e-14,0.0,2.2923595905303955,-0.02292359620332718,0.011736443266272545,-0.02292359620332718,0.0,0.0,-0.0039956774562597275,0.1531752347946167,0.9568962726796697,0.18067029118537903,0.702689528465271,0.17667460441589355,0.7377871870994568,1.8522605895996094,0.48999619483947754,,,,,,,
5240616000.0,85.41,0.18000000715255737,12041169408.0,2222.397615833009,195.0,0.002875975100323558,802816.0,1142.099909543991,1.5035715728028975e-14,0.0,2.254629135131836,-0.02254629321396351,0.01572083681821823,-0.02254629135131836,-1.862645149230957e-09,0.0,0.01700788177549839,0.17652200162410736,0.9317121841267269,0.22397470474243164,0.6416353583335876,0.24098260700702667,0.6755028367042542,1.8430545330047607,0.4901609420776367,,,,,,,
5240616000.0,86.75,0.3400000035762787,12041169408.0,2282.8143014754296,196.0,0.0019185252021998167,806912.0,1143.8941860198975,1.4900407296902785e-14,0.0,2.2693562507629395,-0.02269354648888111,0.003465223591774702,-0.022693561390042305,1.4901161193847656e-08,0.0,0.02722201496362686,0.07868240773677826,0.9890814867252836,0.14284685254096985,0.7312020063400269,0.1700688749551773,0.7530015110969543,1.794276475906372,0.48967885971069336,,,,,,,
5240616000.0,85.15,-0.10000000149011612,12041169408.0,2169.1896441744316,197.0,-0.0023035129997879267,811008.0,1145.7824487686157,1.3841358614818944e-14,0.0,2.2754664421081543,-0.022754661738872528,0.0033333394676446915,-0.022754663601517677,1.862645149230957e-09,0.0,0.021269146353006363,0.078840471804142,0.9913785623260033,0.06389953941106796,0.8338081240653992,0.08516867458820343,0.8491010069847107,1.8882627487182617,0.48951029777526855,,,,,,,
5240616000.0,92.74,0.0,12041169408.0,2312.800300693253,198.0,0.002882604952901602,815104.0,1147.5534620285034,1.5451615681394415e-14,0.0,2.265266180038452,-0.022652678191661835,0.0041787875816226006,-0.02265266142785549,-1.6763806343078613e-08,0.0,0.031735315918922424,0.08574520796537399,0.982500164947457,0.24087782204151154,0.6307875514030457,0.27261313796043396,0.648175835609436,1.7710132598876953,0.4898502826690674,,,,,,,
5240616000.0,92.04,0.10000000149011612,12041169408.0,2191.8002042803964,199.0,0.0015381714329123497,819200.0,1149.422245502472,1.6128591517894364e-14,0.0,2.2261080741882324,-0.022261086851358414,0.006255039945244789,-0.022261079400777817,-7.450580596923828e-09,0.0,0.035793982446193695,0.1059793010354042,0.9824101524163761,0.13761113584041595,0.7843623757362366,0.17340514063835144,0.7990795373916626,1.8687834739685059,0.4897599220275879,,,,,,,
5240616000.0,85.64,0.33000001311302185,12041169408.0,2212.8250525646554,200.0,0.0032717317808419466,823296.0,1151.2732729911804,1.6561405025150577e-14,0.0,2.2104859352111816,-0.022104857489466667,0.02963460236787796,-0.022104859352111816,1.862645149230957e-09,0.0,-0.028510984033346176,0.24180695414543152,0.885459955528268,0.18818533420562744,0.665586531162262,0.15967434644699097,0.7144801020622253,1.851027488708496,0.48995208740234375,,,,,,,
5240616000.0,72.41,-0.019999999552965164,12041169408.0,2279.722060751738,201.0,-0.0005774826277047396,827392.0,1153.0699832439423,1.61632859874139e-14,0.0,2.167175531387329,-0.02167177014052868,0.0024721757508814335,-0.021671755239367485,-1.4901161193847656e-08,0.0,0.009478302672505379,0.06968285143375397,0.9941880749061819,0.11707546561956406,0.9204803705215454,0.12655377388000488,0.9140413999557495,1.7967102527618408,0.4899017810821533,,,,,,,
5240616000.0,74.41,0.1899999976158142,12041169408.0,2177.72213651126,202.0,0.00539654865860939,831488.0,1154.9508476257324,1.5755192289690356e-14,0.0,2.238961696624756,-0.02238960564136505,0.004500036593526602,-0.022389616817235947,1.1175870895385742e-08,0.0,0.019915256649255753,0.09276613593101501,0.9787695166810212,0.40778979659080505,0.6219395995140076,0.4277050495147705,0.6366629004478455,1.8808643817901611,0.4900534152984619,,,,,,,
5240616000.0,89.39,0.3400000035762787,12041169408.0,2281.277735595507,203.0,0.0019286205060780048,835584.0,1156.7463326454163,1.5525775109992423e-14,0.0,2.2470898628234863,-0.022470926865935326,0.009354813024401665,-0.022470898926258087,-2.7939677238464355e-08,0.0,0.01606050506234169,0.135853573679924,0.9734697007465467,0.2796947956085205,0.8336761593818665,0.2957552671432495,0.8340651392936707,1.795485019683838,0.4900808334350586,,,,,,,
5240616000.0,96.1,0.44999998807907104,12041169408.0,2213.0961391483843,204.0,0.0036680514458566904,839680.0,1158.597133398056,1.629729337593311e-14,0.0,2.2538599967956543,-0.022538594901561737,0.019687267020344734,-0.022538598626852036,3.725290298461914e-09,0.0,-0.0009149340912699699,0.19845229387283325,0.9306592489717618,0.41695523262023926,0.736335813999176,0.416040301322937,0.753636360168457,1.8508007526397705,0.48976993560791016,,,,,,,
5240616000.0,85.54,0.2800000011920929,12041169408.0,2286.949550014623,205.0,0.000193118117749691,843776.0,1160.388165473938,1.596812959636651e-14,0.0,2.244875907897949,-0.022448748350143433,0.050551507622003555,-0.02244875766336918,8.847564458847046e-09,0.0,-0.047259680926799774,0.3144736886024475,0.8770192128946691,0.3563351035118103,0.8137749433517456,0.30907541513442993,0.8967381715774536,1.791032075881958,0.4898209571838379,,,,,,,
5240616000.0,91.13,0.23999999463558197,12041169408.0,2287.0558024565134,206.0,0.004827667493373156,847872.0,1162.1791143417358,1.526946971641685e-14,0.0,2.2335376739501953,-0.022335387766361237,0.020114947110414505,-0.02233537659049034,-1.1175870895385742e-08,0.0,-0.01550130732357502,0.1999984234571457,0.9417331415267626,0.5076838731765747,0.8065721988677979,0.49218252301216125,0.8285443782806396,1.7909488677978516,0.489612340927124,,,,,,,
5240616000.0,91.31,0.07999999821186066,12041169408.0,2302.1837791827134,207.0,-0.0017380760982632637,851968.0,1163.9582946300507,1.6308569078526958e-14,0.0,2.2361695766448975,-0.022361695766448975,0.05852187052369118,-0.022361695766448975,0.0,0.0,-0.058310024440288544,0.3371519446372986,0.8755339963020133,0.397337943315506,0.9022287726402283,0.33902794122695923,0.9556531310081482,1.7791802883148193,0.4900195598602295,,,,,,,
5240616000.0,88.78,0.009999999776482582,12041169408.0,2208.2579429445045,208.0,0.0013528128620237112,856064.0,1165.8131504058838,1.6301196503754056e-14,0.0,2.2618398666381836,-0.022618401795625687,0.007825387641787529,-0.022618398070335388,-3.725290298461914e-09,0.0,-0.004441224969923496,0.1250394582748413,0.9803505877686268,0.32496365904808044,0.8869386911392212,0.3205224275588989,0.8920153379440308,1.8548557758331299,0.49001383781433105,,,,,,,
5240616000.0,90.36,-0.12999999523162842,12041169408.0,2244.0762641671454,209.0,-0.0025133038870990276,860160.0,1167.6384003162384,1.4804563824855066e-14,0.0,2.286421775817871,-0.022864220663905144,0.03106728568673134,-0.022864216938614845,-3.725290298461914e-09,0.0,-0.008436092175543308,0.2491556853055954,0.9292931750663215,0.17485153675079346,0.9030624628067017,0.16641545295715332,0.9370012879371643,1.8252499103546143,0.48982810974121094,,,,,,,
5240616000.0,87.7,-0.23000000417232513,12041169408.0,2217.8430555551968,210.0,-0.002902282401919365,864256.0,1169.4852397441864,1.3938503129473645e-14,0.0,2.2828593254089355,-0.022828591987490654,0.032211728394031525,-0.022828591987490654,0.0,0.0,-0.0346934013068676,0.25146621465682983,0.9134569238180181,0.11544929444789886,0.7790344953536987,0.08075589686632156,0.8547980189323425,1.846839427947998,0.48977231979370117,,,,,,,
5240616000.0,85.61,-0.25999999046325684,12041169408.0,2323.004652805516,211.0,-0.0011607622727751732,868352.0,1171.248473405838,1.6539287300831873e-14,0.0,2.2108583450317383,-0.02210858277976513,0.02870943956077099,-0.02210858277976513,0.0,0.0,0.01692895218729973,0.23905278742313385,0.9435503789268229,0.2469964623451233,0.9663795828819275,0.2639254331588745,1.0061513185501099,1.7632336616516113,0.4898838996887207,,,,,,,
5240616000.0,89.53,0.0,12041169408.0,2177.3514667450754,212.0,0.003484345506876707,872448.0,1173.12965798378,1.500926119502033e-14,0.0,2.239431858062744,-0.022394318133592606,0.03140151873230934,-0.022394318133592606,0.0,0.0,-0.0004244968295097351,0.25063556432724,0.9113519867659422,0.5110234618186951,0.810723066329956,0.5105989575386047,0.8417986631393433,1.8811845779418945,0.4898338317871094,,,,,,,
5240616000.0,94.21,0.33000001311302185,12041169408.0,2313.127270093191,213.0,0.0029051664751023054,876544.0,1174.9004209041595,1.4570376155598197e-14,0.0,2.257416009902954,-0.02257416397333145,0.04039349406957626,-0.022574160248041153,-3.725290298461914e-09,0.0,0.0033815796487033367,0.284245103597641,0.8884020233966896,0.5675008296966553,0.7703946828842163,0.5708824396133423,0.8508731722831726,1.7707629203796387,0.489703893661499,,,,,,,
5240616000.0,102.91,0.4099999964237213,12041169408.0,2224.137144603028,214.0,0.004261973313987255,880640.0,1176.742033958435,1.6289487120291213e-14,0.0,2.2284412384033203,-0.022284435108304024,0.023595107719302177,-0.022284412756562233,-2.2351741790771484e-08,0.0,0.02331072837114334,0.2160051316022873,0.9492544008307084,0.4847276508808136,0.9200818538665771,0.5080384016036987,0.9588813781738281,1.8416130542755127,0.4902079105377197,,,,,,,
5240616000.0,101.33,0.3499999940395355,12041169408.0,2237.6392522945744,215.0,0.002132222754880786,884736.0,1178.5725345611572,1.6204919350837343e-14,0.0,2.208914279937744,-0.022089138627052307,0.024388886988162994,-0.022089142352342606,3.725290298461914e-09,0.0,0.003123121801763773,0.2208617925643921,0.9469161046696507,0.3780354857444763,0.9016551971435547,0.38115859031677246,0.9586039781570435,1.830500602722168,0.48990964889526367,,,,,,,
5240616000.0,95.48,0.2800000011920929,12041169408.0,2229.4982492854974,216.0,0.002133741043508053,888832.0,1180.4097192287445,1.6074815090139083e-14,0.0,2.2092087268829346,-0.022092079743742943,0.013202022761106491,-0.02209208719432354,7.450580596923828e-09,0.0,0.019045699387788773,0.16139289736747742,0.9755429983483991,0.5016000270843506,1.0233643054962158,0.5206457376480103,1.0320073366165161,1.8371846675872803,0.48968076705932617,,,,,,,
5240616000.0,91.84,0.46000000834465027,12041169408.0,2239.6961374073167,217.0,0.005048229359090328,892928.0,1182.2385387420654,1.550365738567372e-14,0.0,2.2180440425872803,-0.02218043804168701,0.020834356546401978,-0.02218043990433216,1.862645149230957e-09,0.0,0.0051880283281207085,0.20408813655376434,0.9604371567514708,0.7389204502105713,0.9778497815132141,0.7441084384918213,1.0260628461837769,1.8288195133209229,0.489865779876709,,,,,,,
5240616000.0,96.44,0.5099999904632568,12041169408.0,2282.5364812027437,218.0,0.003493885276839137,897024.0,1184.0330336093903,1.6871486846481432e-14,0.0,2.1627752780914307,-0.021627752110362053,0.06175721436738968,-0.021627752110362053,0.0,0.0,-0.050355538725852966,0.34786245226860046,0.9206199170023834,1.0008795261383057,1.1453006267547607,0.9505239129066467,1.2346725463867188,1.794494867324829,0.49004054069519043,,,,,,,
5240616000.0,96.85,0.4300000071525574,12041169408.0,2343.4908818686085,219.0,-3.4924596548080444e-10,901120.0,1185.780853509903,1.7970000487643745e-14,0.0,2.0716135501861572,-0.020716143772006035,0.033927347511053085,-0.02071613445878029,-9.313225746154785e-09,0.0,-0.05238508805632591,0.25519871711730957,0.9566136422155495,0.5270673036575317,1.2451149225234985,0.4746822416782379,1.2251856327056885,1.7478199005126953,0.49002933502197266,,,,,,,
5240616000.0,92.74,0.23000000417232513,12041169408.0,2216.952405876233,220.0,0.0017482161056250334,905216.0,1187.6284348964691,1.7513768213461844e-14,0.0,2.110044479370117,-0.021100450307130814,0.016159771010279655,-0.021100444719195366,-4.889443516731262e-09,0.0,-0.013102667406201363,0.17932014167308807,0.9803239710565168,0.6973461508750916,1.2858527898788452,0.6842434406280518,1.2783809900283813,1.847581386566162,0.49149584770202637,,,,,,,
5240616000.0,90.24,0.09000000357627869,12041169408.0,2232.950091885686,221.0,0.0007775284466333687,909312.0,1189.4627795219421,1.5851903123476063e-14,0.0,2.1613311767578125,-0.021613305434584618,0.009820228442549706,-0.021613311022520065,5.587935447692871e-09,0.0,0.0006490768864750862,0.14016002416610718,0.9837716931663226,0.476083368062973,1.102126955986023,0.476732462644577,1.1002403497695923,1.8343446254730225,0.48958349227905273,,,,,,,
5240616000.0,84.18,0.2199999988079071,12041169408.0,2261.865627306482,222.0,0.001945088617503643,913408.0,1191.2736740112305,1.6783883310944603e-14,0.0,2.0730080604553223,-0.02073007822036743,0.008530124090611935,-0.02073008008301258,1.3969838619232178e-09,0.0,-0.007476856932044029,0.1304166316986084,0.9808000285851654,0.31075695157051086,0.9442744851112366,0.3032801151275635,0.9412016272544861,1.81089448928833,0.4899256229400635,,,,,,,
5240616000.0,76.87,0.05999999865889549,12041169408.0,2320.992644504846,223.0,0.0011676163412630558,917504.0,1193.0384361743927,1.7643872474160105e-14,0.0,2.084566593170166,-0.02084566093981266,0.019793815910816193,-0.02084566466510296,3.725290298461914e-09,0.0,-0.00016389950178563595,0.1989906281232834,0.9641043042225119,0.4175782799720764,1.005638599395752,0.4174143671989441,1.050295352935791,1.7647621631622314,0.489774227142334,,,,,,,
,,,,,,,,,,,,,,,,,,,,,,,,,,0.016856221482157707,0.07184521853923798,0.07011807709932327,0.016856221482157707,0.07184521853923798,0.07011807709932327,
,,,,,,,,,,,,,,,,,,,,,,,,,,0.005107513628900051,0.049309778958559036,0.04813959449529648,0.005107513628900051,0.049309778958559036,0.04813959449529648,
,,,,,,,,,,,,,,,,,,,,,,,,,,0.005555410869419575,0.04765749350190163,0.04613713175058365,0.005555410869419575,0.04765749350190163,0.04613713175058365,
,,,,,,,,,,,,,,,,,,,,,,,,,,0.005605954211205244,0.043857391923666,0.045898351818323135,0.005605954211205244,0.043857391923666,0.045898351818323135,
,,,,,,,,,,,,,,,,,,,,,,,,,,0.005780714098364115,0.0416431650519371,0.04305439814925194,0.005780714098364115,0.0416431650519371,0.04305439814925194,
,,,,,,,,,,,,,,,,,,,,,,,,,,0.0036553465761244297,0.037009358406066895,0.03588686138391495,0.0036553465761244297,0.037009358406066895,0.03588686138391495,
,,,,,,,,,,,,,,,,,,,,,,,,,,,,,,,,-1.47
5240616000.0,86.53,0.3700000047683716,11990521856.0,30.80080794612537,224.0,0.0077891042456030846,921600.0,1326.021960735321,1.6665488433709186e-14,0.0,2.143200635910034,-0.021432029083371162,0.009994998574256897,-0.02143200673162937,-2.2351741790771484e-08,0.0,0.042431652545928955,0.13488510251045227,0.9706549090340595,0.5539953112602234,0.7411848902702332,0.5964269638061523,0.7874016165733337,132.98352456092834,0.5003030300140381,,,,,,,
5240616000.0,94.31,0.44999998807907104,12041169408.0,2333.606248353016,225.0,0.0017531438497826457,925696.0,1327.777184009552,1.621185824474125e-14,0.0,2.0696613788604736,-0.020696617662906647,0.01084856130182743,-0.02069661393761635,-3.725290298461914e-09,0.0,0.013132333755493164,0.14673078060150146,0.9761306115005608,0.35799917578697205,0.9263638257980347,0.3711314797401428,0.9497308731079102,1.755223274230957,0.48968935012817383,,,,,,,
5240616000.0,96.66,0.5,12041169408.0,2320.070815906786,226.0,0.004678606055676937,929792.0,1329.5426473617554,1.52208974590895e-14,0.0,2.15311598777771,-0.02153114415705204,0.008547456935048103,-0.021531159058213234,1.4901161193847656e-08,0.0,0.031131664291024208,0.12700265645980835,0.9798354093109191,0.5746904611587524,0.8563852906227112,0.6058222055435181,0.894371747970581,1.7654633522033691,0.4896843433380127,,,,,,,
5240616000.0,92.07,0.5199999809265137,12041169408.0,2351.5766954511155,227.0,0.005657970439642668,933888.0,1331.2844574451447,1.6344130909784482e-14,0.0,2.119021415710449,-0.021190207451581955,0.006826184224337339,-0.021190213039517403,6.51925802230835e-09,0.0,0.003774277400225401,0.11679663509130478,0.9782541673313271,0.43705493211746216,0.7674879431724548,0.44082918763160706,0.7920312285423279,1.7418100833892822,0.4898650646209717,,,,,,,
5240616000.0,92.74,0.4099999964237213,12041169408.0,2212.170841666594,228.0,0.00136664102319628,937984.0,1333.1360323429108,1.6157648136116975e-14,0.0,2.1356425285339355,-0.021356424316763878,0.004650643095374107,-0.021356424316763878,0.0,0.0,0.014984525740146637,0.0952836126089096,0.9886834395301952,0.31365883350372314,0.8651785850524902,0.3286433815956116,0.8956966996192932,1.8515748977661133,0.4898819923400879,,,,,,,
5240616000.0,85.21,0.20000000298023224,12041169408.0,2307.4254380951857,229.0,0.001953082624822855,942080.0,1334.9111709594727,1.6736612096224235e-14,0.0,2.0562191009521484,-0.020562205463647842,0.006968392990529537,-0.02056219056248665,-1.4901161193847656e-08,0.0,0.02742970734834671,0.11483734101057053,0.9880544444649637,0.3874610960483551,1.0128121376037598,0.4148908257484436,1.0507030487060547,1.7751386165618896,0.4898102283477783,,,,,,,
5240616000.0,86.17,0.3100000023841858,12041169408.0,2339.1739853551344,230.0,0.003125982591882348,946176.0,1336.662216424942,1.623744541601191e-14,0.0,2.0622992515563965,-0.020622989162802696,0.004224756266921759,-0.020622992888092995,3.725290298461914e-09,0.0,-0.005806050729006529,0.09174888581037521,0.9875599739773272,0.14365839958190918,0.8260407447814941,0.13785234093666077,0.8226027488708496,1.7510454654693604,0.48995018005371094,,,,,,,
5240616000.0,76.54,0.23000000417232513,12041169408.0,2178.584853038876,231.0,0.001955409999936819,950272.0,1338.542335987091,1.6526276874762047e-14,0.0,2.0814762115478516,-0.020814761519432068,0.004067791160196066,-0.020814761519432068,0.0,0.0,0.022881941869854927,0.08725741505622864,0.9922036179894458,0.3941836953163147,0.9669702053070068,0.41706565022468567,0.9882248640060425,1.8801195621490479,0.489849328994751,,,,,,,
5240616000.0,82.51,0.3700000047683716,12041169408.0,2341.6864365299325,232.0,0.00508734118193388,954368.0,1340.291502714157,1.613032624137034e-14,0.0,2.093398094177246,-0.020933980122208595,0.006382564082741737,-0.020933980122208595,0.0,0.0,0.015654221177101135,0.11190679669380188,0.9863276472700958,0.691436767578125,0.9410094022750854,0.7070909738540649,0.9570504426956177,1.74916672706604,0.48993682861328125,,,,,,,
5240616000.0,91.46,0.4300000071525574,12041169408.0,2247.8742750942793,233.0,0.002937598619610071,958464.0,1342.113668680191,1.611688213443152e-14,0.0,2.091564416885376,-0.02091563679277897,0.016908982768654823,-0.020915644243359566,7.450580596923828e-09,0.0,0.02078656479716301,0.18274036049842834,0.974107320731583,0.7929016351699829,1.112610936164856,0.8136882185935974,1.1356537342071533,1.8221659660339355,0.489948034286499,,,,,,,
5240616000.0,116.76,0.6200000047683716,12041169408.0,2232.2723268237887,234.0,0.004309878684580326,962560.0,1343.9485702514648,1.6534083130403943e-14,0.0,2.1265859603881836,-0.02126585878431797,0.01273164339363575,-0.02126585878431797,0.0,0.0,0.012646164745092392,0.15908972918987274,0.9804570748014182,0.7877480983734131,1.129542350769043,0.8003942966461182,1.138013243675232,1.8349015712738037,0.4911210536956787,,,,,,,
5240616000.0,107.67,0.36000001430511475,12041169408.0,2266.8691625200545,235.0,0.0029405204113572836,966656.0,1345.7554676532745,1.647380148961375e-14,0.0,2.057136297225952,-0.020571360364556313,0.040183983743190765,-0.020571362227201462,1.862645149230957e-09,0.0,-0.050883807241916656,0.27892255783081055,0.9429762672207516,0.5647854208946228,1.1254425048828125,0.5139015913009644,1.1680349111557007,1.8068974018096924,0.48980188369750977,,,,,,,
5240616000.0,95.44,0.36000001430511475,12041169408.0,2233.4337151996724,236.0,0.0052988575771451,970752.0,1347.5894150733948,1.506520602712058e-14,0.0,2.0848445892333984,-0.020848453044891357,0.00899801217019558,-0.02084844559431076,-7.450580596923828e-09,0.0,-0.004882821813225746,0.13407672941684723,0.9838123921794923,0.6499569416046143,1.0535110235214233,0.645074188709259,1.053809404373169,1.8339474201202393,0.48955440521240234,,,,,,,
5240616000.0,92.3,0.4300000071525574,12041169408.0,2201.527008187872,237.0,0.0047149332240223885,974848.0,1349.4499418735504,1.615287764655804e-14,0.0,2.0734949111938477,-0.02073494903743267,0.014516578055918217,-0.02073494903743267,0.0,0.0,-0.01681884378194809,0.16957977414131165,0.9739686207265162,0.7812377214431763,1.0490479469299316,0.7644188404083252,1.0510549545288086,1.8605268001556396,0.4896574020385742,,,,,,,
5240616000.0,92.43,0.3799999952316284,12041169408.0,2242.037955459841,238.0,0.0013755046529695392,978944.0,1351.2768511772156,1.5803764547017707e-14,0.0,2.0491065979003906,-0.02049107663333416,0.010895948857069016,-0.020491065457463264,-1.0710209608078003e-08,0.0,-0.012915639206767082,0.14707264304161072,0.987025084085859,0.6456819772720337,1.3098828792572021,0.6327662467956543,1.291158676147461,1.8269093036651611,0.48972058296203613,,,,,,,
5240616000.0,86.65,0.25999999046325684,12041169408.0,2328.5991815955226,239.0,0.005112410057336092,983040.0,1353.0358486175537,1.6663320029364215e-14,0.0,2.0540757179260254,-0.020540760830044746,0.019560035318136215,-0.020540757104754448,-3.725290298461914e-09,0.0,-0.02243465930223465,0.19653545320034027,0.9770628085567996,0.9506831765174866,1.284805178642273,0.9282485246658325,1.2976895570755005,1.7589974403381348,0.48978257179260254,,,,,,,
5240616000.0,96.57,0.6200000047683716,12041169408.0,2258.168927043501,240.0,0.005312142428010702,987136.0,1354.8497076034546,1.6862813229101548e-14,0.0,2.0759830474853516,-0.020759835839271545,0.0264754518866539,-0.020759830251336098,-4.6566128730773926e-09,0.0,-0.052186839282512665,0.2241421490907669,0.9585438297331524,0.7194947004318237,1.1066707372665405,0.6673078536987305,1.100852131843567,1.813858985900879,0.4895055294036865,,,,,,,
5240616000.0,92.25,0.4099999964237213,12041169408.0,2179.3498287776583,241.0,0.00019698368851095438,991232.0,1356.7291672229767,1.6054432089296355e-14,0.0,2.0628318786621094,-0.020628323778510094,0.006228049285709858,-0.020628318190574646,-5.587935447692871e-09,0.0,0.0013981894589960575,0.11161176860332489,0.9906740307880604,0.5501093864440918,1.123443603515625,0.5515075922012329,1.155747652053833,1.8794596195220947,0.4902358055114746,,,,,,,
5240616000.0,92.89,0.17000000178813934,12041169408.0,2246.970514500002,242.0,0.0017728239763528109,995328.0,1358.5520660877228,1.5963359106807573e-14,0.0,2.0423409938812256,-0.02042340859770775,0.03431825339794159,-0.02042340859770775,0.0,0.0,-0.02616734616458416,0.26070743799209595,0.9620860839673913,0.7276941537857056,1.2574753761291504,0.7015268802642822,1.3389184474945068,1.8228988647460938,0.489879846572876,,,,,,,
5240616000.0,95.57,0.30000001192092896,12041169408.0,2229.837685789855,243.0,0.003942881245166063,999424.0,1360.3889710903168,1.594124138248887e-14,0.0,2.0561485290527344,-0.02056148461997509,0.013871002942323685,-0.02056148461997509,0.0,0.0,-0.003017791546881199,0.16655230522155762,0.9792207137216155,0.7662058472633362,1.1386187076568604,0.7631880044937134,1.1554079055786133,1.8369050025939941,0.4899098873138428,,,,,,,
5240616000.0,101.25,0.5099999904632568,12041169408.0,2210.768555991679,244.0,0.0041429586708545685,1003520.0,1362.2417204380035,1.559559772990049e-14,0.0,2.0699338912963867,-0.020699340850114822,0.010308234952390194,-0.020699338987469673,-2.7939677238464355e-09,0.0,0.03169477730989456,0.14005963504314423,0.9874991042141807,0.8476270437240601,1.2299102544784546,0.879321813583374,1.252686619758606,1.8527493476867676,0.49121832847595215,,,,,,,
5240616000.0,111.46,0.7200000286102295,12041169408.0,2288.6059571348032,245.0,0.005130110774189234,1007616.0,1364.031456232071,1.7525477596924688e-14,0.0,2.010885715484619,-0.020108859986066818,0.011871511116623878,-0.02010885626077652,-3.725290298461914e-09,0.0,0.013870776630938053,0.15348085761070251,0.9844104454825132,0.8793950080871582,1.2186228036880493,0.8932657837867737,1.229241967201233,1.7897357940673828,0.4900648593902588,,,,,,,
5240616000.0,112.78,0.6600000262260437,12041169408.0,2324.2655419192192,246.0,0.005727448035031557,1011712.0,1365.7937333583832,1.5466794511809212e-14,0.0,2.1243293285369873,-0.021243290975689888,0.00906374305486679,-0.021243292838335037,1.862645149230957e-09,0.0,0.010300111956894398,0.1342601627111435,0.9833275014778617,0.7879380583763123,1.0305774211883545,0.7982381582260132,1.039792776107788,1.7622771263122559,0.49001455307006836,,,,,,,
5240616000.0,106.97,0.6299999952316284,12041169408.0,2321.1328165553423,247.0,0.002766336314380169,1015808.0,1367.5583889484406,1.6658115858936284e-14,0.0,2.0664005279541016,-0.020663997158408165,0.0072189318016171455,-0.020664004608988762,7.450580596923828e-09,0.0,0.02310527116060257,0.11792966723442078,0.9914396020869755,0.606017529964447,1.264959454536438,0.629122793674469,1.274606466293335,1.764655590057373,0.48966264724731445,,,,,,,
5240616000.0,97.55,0.3199999928474426,12041169408.0,2330.653177173859,248.0,-0.0007903864607214928,1019904.0,1369.3158361911774,1.6495919213932453e-14,0.0,2.059701681137085,-0.020596995949745178,0.007920891977846622,-0.02059701643884182,1.955777406692505e-08,0.0,0.016878806054592133,0.12474249303340912,0.9913920723628478,0.5301891565322876,1.3459140062332153,0.5470679998397827,1.3445134162902832,1.7574472427368164,0.48978495597839355,,,,,,,
5240616000.0,89.55,0.009999999776482582,12041169408.0,2240.869357495602,249.0,0.00019760115537792444,1024000.0,1371.1436982154846,1.6247420075998775e-14,0.0,2.0657267570495605,-0.020657259970903397,0.020063893869519234,-0.020657267421483994,7.450580596923828e-09,0.0,-0.005184965208172798,0.20027653872966766,0.9746771690802082,0.48180264234542847,1.2517427206039429,0.47661763429641724,1.2585601806640625,1.827862024307251,0.4896659851074219,,,,,,,
5240616000.0,85.22,0.11999999731779099,12041169408.0,2229.4224472367086,250.0,0.005537142977118492,1028096.0,1372.9809453487396,1.492382606382847e-14,0.0,2.12069034576416,-0.021206893026828766,0.009179804474115372,-0.021206902340054512,9.313225746154785e-09,0.0,0.010563665069639683,0.13510172069072723,0.9876762712589898,0.6743248701095581,1.21421217918396,0.6848886013031006,1.2169978618621826,1.8372471332550049,0.49003052711486816,,,,,,,
5240616000.0,85.31,0.5,12041169408.0,2269.4462421818766,251.0,0.0037603206001222134,1032192.0,1374.7857909202576,1.3513929558728321e-14,0.0,2.16467022895813,-0.02164669893682003,0.005546617321670055,-0.02164670266211033,3.725290298461914e-09,0.0,-0.0037413081154227257,0.10527081042528152,0.9898786842726185,0.4331415295600891,1.048526644706726,0.429400235414505,1.0463801622390747,1.8048455715179443,0.4899446964263916,,,,,,,
5240616000.0,86.96,0.17000000178813934,12041169408.0,2261.6512370325963,252.0,-0.0025739981792867184,1036288.0,1376.5968570709229,1.523650997037329e-14,0.0,2.1031808853149414,-0.021031808108091354,0.005519164726138115,-0.021031808108091354,9.313225746154785e-10,0.0,-0.003304336918517947,0.1050243005156517,0.992818805969003,0.33591681718826294,1.2348639965057373,0.33261245489120483,1.2393429279327393,1.8110661506652832,0.4902358055114746,,,,,,,
5240616000.0,79.85,0.019999999552965164,12041169408.0,2188.7835308455838,253.0,0.0031695475336164236,1040384.0,1378.4682161808014,1.7306035077213622e-14,0.0,2.116969585418701,-0.021169692277908325,0.02531510777771473,-0.021169696003198624,3.725290298461914e-09,0.0,-0.0145921241492033,0.22456535696983337,0.9729644113198856,0.8131321668624878,1.3561338186264038,0.7985399961471558,1.365761399269104,1.87135910987854,0.4899890422821045,,,,,,,
5240616000.0,92.52,0.1899999976158142,12041169408.0,2217.328955774663,254.0,4.656612873077393e-10,1044480.0,1380.3154838085175,1.5933868807715967e-14,0.0,2.12992000579834,-0.021299201995134354,0.022633489221334457,-0.021299200132489204,-1.862645149230957e-09,0.0,-0.010885528288781643,0.2125076800584793,0.9768106497545815,0.5422079563140869,1.3854775428771973,0.5313224196434021,1.3955014944076538,1.8472676277160645,0.48985958099365234,,,,,,,
