CpuMaxMemory,EpLenMean,EpRewMean,GpuMaxMemory,IPS_total,Iter,Misc/FrameRewMean,Misc/InteractCount,Misc/TimeElapsed,Opt/approxkl,Opt/clipfrac,Opt/entropy,Opt/loss_pi,Opt/loss_vf,Opt/negent,Opt/pg,Opt/pi_kl,VFStats/AdvMean,VFStats/AdvStd,VFStats/EV,VFStats/VpredMean,VFStats/VpredStd,VFStats/VtargMean,VFStats/VtargStd,del_time,wait_optimization,scaled/pol_distance,scaled/vf_aux,scaled/vf_true,unscaled/pol_distance,unscaled/vf_aux,unscaled/vf_true,EvalEpMean
3037880000.0,79.0,-3.8604650497436523,11965495808.0,1689.4919472182175,0.0,-0.02290157787501812,4096.0,2.4243974685668945,2.706168622523819e-15,0.0,2.7078075408935547,-0.02707805670797825,0.24580225348472595,-0.02707807533442974,1.862645149230957e-08,0.0,-0.3471387028694153,0.6092535257339478,-0.0007321006548561826,0.012530401349067688,0.014408844523131847,-0.3346083164215088,0.6090306639671326,2.4243974685668945,1.0238914489746094,,,,,,,
3087256000.0,85.47727272727273,-3.715909004211426,12031147008.0,1734.7921973744053,1.0,-0.01411137543618679,8192.0,4.785487174987793,2.400857290751901e-15,0.0,2.706319808959961,-0.027063198387622833,0.14744658768177032,-0.027063198387622833,0.0,0.0,-0.1528424620628357,0.5211513042449951,0.02642062180054694,-0.2996739149093628,0.0635857880115509,-0.4525163471698761,0.5281753540039062,2.3610897064208984,0.9972708225250244,,,,,,,
3136620000.0,91.34,-3.509999990463257,12031147008.0,1792.0277714264732,2.0,-0.019043374806642532,12288.0,7.071166038513184,2.6298407895808396e-15,0.0,2.7052619457244873,-0.0270526222884655,0.20948831737041473,-0.0270526185631752,-3.259629011154175e-09,0.0,-0.1354740560054779,0.6330255270004272,-0.009503996586795571,-0.6660333871841431,0.12625935673713684,-0.8015074133872986,0.6300386190414429,2.2856788635253906,0.9970476627349854,,,,,,,
3185724000.0,89.52,-3.1700000762939453,12031147008.0,1796.6483138724582,3.0,-0.012855399399995804,16384.0,9.350966691970825,3.1780134079895106e-15,0.0,2.7018375396728516,-0.02701837755739689,0.23098281025886536,-0.02701837569475174,-1.862645149230957e-09,0.0,0.12115927040576935,0.6688761115074158,0.08433832236018624,-1.3986670970916748,0.3294919729232788,-1.2775077819824219,0.6990014910697937,2.2798006534576416,0.9971990585327148,,,,,,,
3235092000.0,85.59,-3.2899999618530273,12031147008.0,1769.7831622083518,4.0,-0.016916589811444283,20480.0,11.665374517440796,3.2335245592207684e-15,0.0,2.700155258178711,-0.02700156345963478,0.21801751852035522,-0.027001552283763885,-1.210719347000122e-08,0.0,0.05837215483188629,0.657824695110321,0.07431555472175999,-1.2766742706298828,0.2587263286113739,-1.2183020114898682,0.6837205290794373,2.3144078254699707,0.9975912570953369,,,,,,,
3284196000.0,82.05,-2.5799999237060547,12031147008.0,1741.896891896934,5.0,-0.013059316202998161,24576.0,14.016834020614624,3.6914915568786455e-15,0.0,2.6945912837982178,-0.02694591134786606,0.20159706473350525,-0.02694591134786606,0.0,0.0,0.01837475411593914,0.6347872614860535,0.0322549010400931,-1.1000442504882812,0.18929339945316315,-1.081669569015503,0.6452794075012207,2.351459503173828,0.9973547458648682,,,,,,,
3333300000.0,82.75,-2.700000047683716,12031147008.0,1831.8474091477271,6.0,-0.01587056927382946,28672.0,16.252828121185303,4.003741782554471e-15,0.0,2.6891539096832275,-0.026891537010669708,0.18556399643421173,-0.026891538873314857,2.7939677238464355e-09,0.0,0.007560203783214092,0.6092302203178406,0.07508936823421941,-0.9620314836502075,0.20707261562347412,-0.954471230506897,0.633478045463562,2.2359941005706787,0.9973742961883545,,,,,,,
3382668000.0,82.55,-2.630000114440918,12031147008.0,1797.3080539368093,7.0,-0.008508187718689442,32768.0,18.531791925430298,4.718447854656915e-15,0.0,2.6830506324768066,-0.026830501854419708,0.13673904538154602,-0.026830505579710007,3.725290298461914e-09,0.0,0.05237766355276108,0.520385205745697,0.10014117845196202,-0.7916267514228821,0.1727973222732544,-0.7392491102218628,0.5485772490501404,2.278963804244995,0.9979209899902344,,,,,,,
3431772000.0,82.04,-2.2100000381469727,12031147008.0,1758.254821984043,8.0,-0.014716177247464657,36864.0,20.861374616622925,4.1494585545365226e-15,0.0,2.6863131523132324,-0.026863133534789085,0.16674399375915527,-0.026863131672143936,-1.862645149230957e-09,0.0,-0.04453007131814957,0.5758350491523743,0.0391087377957583,-0.6601702570915222,0.1465616375207901,-0.7047003507614136,0.5874366164207458,2.329582691192627,0.9971230030059814,,,,,,,
3481140000.0,76.21,-2.4800000190734863,12031147008.0,1818.3415523420692,9.0,-0.015986790880560875,40960.0,23.11397671699524,4.586608870482678e-15,0.0,2.679652690887451,-0.026796523481607437,0.17737051844596863,-0.026796527206897736,3.725290298461914e-09,0.0,-0.07065035402774811,0.5914684534072876,0.1665479359606239,-0.5868398547172546,0.16489477455615997,-0.6574902534484863,0.6478751301765442,2.2526021003723145,0.9971420764923096,,,,,,,
3530244000.0,76.79,-2.3299999237060547,12031147008.0,1727.7401845156091,10.0,-0.013514235615730286,45056.0,25.484703540802002,4.496403249731884e-15,0.0,2.6790871620178223,-0.026790877804160118,0.14659135043621063,-0.02679087035357952,-7.450580596923828e-09,0.0,-0.04466895014047623,0.5396836996078491,0.19827759581710647,-0.5906621813774109,0.1964961290359497,-0.6353311538696289,0.602736234664917,2.3707268238067627,0.9974462985992432,,,,,,,
3579348000.0,76.55,-2.299999952316284,12031147008.0,1775.2256981066216,11.0,-0.014660614542663097,49152.0,27.79201579093933,4.767020111984266e-15,0.0,2.6755316257476807,-0.0267553199082613,0.16321462392807007,-0.026755316182971,-3.725290298461914e-09,0.0,-0.03591523319482803,0.5702795386314392,0.24585030057076618,-0.6534543633460999,0.26408761739730835,-0.6893696188926697,0.6566879153251648,2.307312250137329,0.9972641468048096,,,,,,,
3628716000.0,78.41,-2.6700000762939453,12031147008.0,1764.1630029199277,12.0,-0.01599637046456337,53248.0,30.113796710968018,4.669875597329565e-15,0.0,2.6671414375305176,-0.026671413332223892,0.19375434517860413,-0.026671413332223892,0.0,0.0,-0.03055126592516899,0.6218277215957642,0.23620437286798424,-0.790666937828064,0.3144109547138214,-0.8212182521820068,0.7115108370780945,2.3217809200286865,0.9971089363098145,,,,,,,
3677820000.0,82.23,-2.640000104904175,12031147008.0,1726.2355624114268,13.0,-0.01220657117664814,57344.0,32.48658990859985,4.413136522884997e-15,0.0,2.6618154048919678,-0.02661816030740738,0.18303078413009644,-0.026618152856826782,-6.51925802230835e-09,0.0,0.05888277292251587,0.6022316217422485,0.239980010456329,-1.0323169231414795,0.3868553936481476,-0.9734342098236084,0.6907980442047119,2.372793197631836,0.9971640110015869,,,,,,,
3726924000.0,77.37,-1.7799999713897705,12031147008.0,1762.5487329968666,14.0,-0.009998735040426254,61440.0,34.81049728393555,5.637851296924623e-15,0.0,2.6233022212982178,-0.02623303420841694,0.16218183934688568,-0.026233021169900894,-1.30385160446167e-08,0.0,0.11646930128335953,0.5575611591339111,0.33395901902593417,-1.0136538743972778,0.4492383897304535,-0.8971846103668213,0.6831910014152527,2.3239073753356934,0.9973752498626709,,,,,,,
3776292000.0,77.79,-1.8600000143051147,12031147008.0,1764.1863726141971,15.0,-0.01622803509235382,65536.0,37.13224744796753,4.7704895589362195e-15,0.0,2.59525465965271,-0.025952545925974846,0.18697351217269897,-0.025952545925974846,0.0,0.0,0.013964448124170303,0.6114273071289062,0.3207043238301047,-1.025623083114624,0.4114934206008911,-1.0116585493087769,0.7418486475944519,2.3217501640319824,0.997199296951294,,,,,,,
3825396000.0,80.9,-2.509999990463257,12031147008.0,1744.7099427084888,16.0,-0.013721256516873837,69632.0,39.479915618896484,5.564992910933597e-15,0.0,2.5417280197143555,-0.025417283177375793,0.1751905232667923,-0.025417279452085495,-3.725290298461914e-09,0.0,0.011035220697522163,0.5918992757797241,0.35419835548838496,-0.8145073652267456,0.4043256938457489,-0.8034721612930298,0.7365432977676392,2.347668170928955,0.9971437454223633,,,,,,,
3874764000.0,79.52,-2.4100000858306885,12031147008.0,1795.4976543912428,17.0,-0.015090187080204487,73728.0,41.76117730140686,6.005612673831706e-15,0.0,2.4582061767578125,-0.024582065641880035,0.18148082494735718,-0.024582061916589737,-3.725290298461914e-09,0.0,-0.05792546272277832,0.5997450351715088,0.31088228028301335,-0.7165583372116089,0.3809141218662262,-0.7744837999343872,0.7224701642990112,2.281261682510376,0.9971106052398682,,,,,,,
3923868000.0,76.24,-2.009999990463257,12031147008.0,1797.256347407485,18.0,-0.008873939514160156,77824.0,44.04020667076111,7.686559722053232e-15,0.0,2.325460195541382,-0.02325459010899067,0.12271489948034286,-0.023254601284861565,1.1175870895385742e-08,0.0,0.059577953070402145,0.49187329411506653,0.3302977406833324,-0.6919018030166626,0.37335920333862305,-0.6323238015174866,0.6010524034500122,2.279029369354248,0.9972183704376221,,,,,,,
3972972000.0,79.33,-1.7100000381469727,12031147008.0,1824.0476269044614,19.0,-0.008571494370698929,81920.0,46.2857620716095,7.433290094560618e-15,0.0,2.3593811988830566,-0.023593803867697716,0.117502361536026,-0.023593811318278313,7.450580596923828e-09,0.0,-0.0025090333074331284,0.4848255515098572,0.45522597407525633,-0.6386585831642151,0.3825320601463318,-0.6411675810813904,0.656866729259491,2.2455554008483887,0.9973170757293701,,,,,,,
4022340000.0,85.48,-2.009999990463257,12031147008.0,1789.5609452745387,20.0,-0.01654214970767498,86016.0,48.574591636657715,7.28063442867466e-15,0.0,2.4091477394104004,-0.024091480299830437,0.18175946176052094,-0.024091476574540138,-3.725290298461914e-09,0.0,-0.08026361465454102,0.5976318717002869,0.17598823080518988,-0.6481246948242188,0.3378809690475464,-0.7283883690834045,0.6583655476570129,2.2888295650482178,0.9974241256713867,,,,,,,
4071444000.0,83.78,-2.190000057220459,12031147008.0,1730.9536654028996,21.0,-0.008148637600243092,90112.0,50.94091725349426,7.268491364342822e-15,0.0,2.3830409049987793,-0.02383040264248848,0.1067628338932991,-0.023830408230423927,5.587935447692871e-09,0.0,0.030318915843963623,0.4611489176750183,0.44541834738375086,-0.6029931902885437,0.4040437936782837,-0.5726742744445801,0.6192392706871033,2.366325616836548,0.9969985485076904,,,,,,,
4120548000.0,82.65,-1.3700000047683716,12031147008.0,1801.0455562112381,22.0,-0.009305913932621479,94208.0,53.2151517868042,8.213915658750182e-15,0.0,2.3286213874816895,-0.02328621968626976,0.12973123788833618,-0.023286214098334312,-4.6566128730773926e-09,0.0,-0.014981601387262344,0.5092163681983948,0.35244720785213535,-0.45897307991981506,0.35141947865486145,-0.4739546775817871,0.6327975988388062,2.2742345333099365,0.9971396923065186,,,,,,,
4170180000.0,80.12,-1.440000057220459,12031147008.0,1812.1131492909922,23.0,-0.007914012297987938,98304.0,55.47549629211426,7.74727504371242e-15,0.0,2.3434243202209473,-0.023434242233633995,0.09666875749826431,-0.023434242233633995,0.0,0.0,0.0014808420091867447,0.43975281715393066,0.4192601922934718,-0.4623231887817383,0.38631194829940796,-0.4608423709869385,0.577055811882019,2.2603445053100586,0.9973876476287842,,,,,,,
4219548000.0,80.82,-1.5499999523162842,12031147008.0,1764.9160357917012,24.0,-0.010711368173360825,102400.0,57.79628658294678,7.547781843975088e-15,0.0,2.3867263793945312,-0.023867255076766014,0.1236199364066124,-0.02386726252734661,7.450580596923828e-09,0.0,0.0009401589632034302,0.49729204177856445,0.35577347466600273,-0.5900381207466125,0.4093061089515686,-0.5890979766845703,0.6195725798606873,2.3207902908325195,0.9973559379577637,,,,,,,
4269260000.0,77.48,-1.7000000476837158,12031147008.0,1731.0075572456014,25.0,-0.01467246562242508,106496.0,60.16253852844238,7.388187284185221e-15,0.0,2.3656959533691406,-0.02365696430206299,0.1579475700855255,-0.02365695871412754,-6.51925802230835e-09,0.0,-0.06118679419159889,0.5587732791900635,0.2733254620092437,-0.5892651081085205,0.35624805092811584,-0.6504518985748291,0.6554893851280212,2.3662519454956055,0.997159481048584,,,,,,,
4318708000.0,78.72,-1.899999976158142,12031147008.0,1777.5709178078266,26.0,-0.011787236668169498,110592.0,62.46680665016174,1.1350295703316249e-14,0.0,2.181918144226074,-0.02181917428970337,0.15663209557533264,-0.021819181740283966,8.381903171539307e-09,0.0,-0.021880537271499634,0.5593404769897461,0.26147934724011146,-0.5175084471702576,0.3578464984893799,-0.5393889546394348,0.6508710980415344,2.3042681217193604,0.9978911876678467,,,,,,,
4368364000.0,83.07,-1.8799999952316284,12031147008.0,1791.42233593241,27.0,-0.008885798044502735,114688.0,64.75325798988342,1.1554993073481512e-14,0.0,2.1066646575927734,-0.02106664329767227,0.1494574248790741,-0.02106664702296257,3.725290298461914e-09,0.0,-0.0025514503940939903,0.5467918515205383,0.2480555310214695,-0.5116254687309265,0.3515283763408661,-0.5141769051551819,0.6305639147758484,2.2864513397216797,0.997417688369751,,,,,,,
4417756000.0,86.63,-1.649999976158142,12031147008.0,1767.541172448412,28.0,-0.012209447100758553,118784.0,67.07060146331787,1.3874318360862503e-14,0.0,1.8523283004760742,-0.018523279577493668,0.18099814653396606,-0.018523283302783966,4.6566128730773926e-09,0.0,-0.07300424575805664,0.5972886681556702,0.24195110265937358,-0.5494226217269897,0.3422449827194214,-0.6224268674850464,0.6860182285308838,2.3173434734344482,0.9970128536224365,,,,,,,
4467388000.0,88.33,-1.5299999713897705,12031147008.0,1729.3684107214813,29.0,-0.007489384151995182,122880.0,69.43909621238708,1.3596762604706214e-14,0.0,1.84507417678833,-0.01845073699951172,0.11605427414178848,-0.018450740724802017,3.725290298461914e-09,0.0,0.011263487860560417,0.48170357942581177,0.3001906498018756,-0.6547513604164124,0.3480907380580902,-0.6434878706932068,0.5758243203163147,2.368494749069214,0.9971981048583984,,,,,,,
4516756000.0,90.83,-1.399999976158142,12031147008.0,1792.6697181240183,30.0,-0.0065096416510641575,126976.0,71.72395658493042,1.4328815911568427e-14,0.0,1.933289885520935,-0.019332898780703545,0.120516836643219,-0.019332898780703545,0.0,0.0,0.08009133487939835,0.48443403840065,0.23122045458945628,-0.7152532339096069,0.3503551185131073,-0.6351619362831116,0.5525019764900208,2.284860372543335,0.9971616268157959,,,,,,,
4566388000.0,91.86,-1.2400000095367432,12031147008.0,1817.8945873416644,31.0,-0.004542728886008263,131072.0,73.97711253166199,1.5366180550202557e-14,0.0,1.9141428470611572,-0.019141435623168945,0.08698625862598419,-0.01914142817258835,-7.450580596923828e-09,0.0,0.05972065404057503,0.4128529727458954,0.35178758883703987,-0.5300347208976746,0.35984373092651367,-0.470314085483551,0.5127866268157959,2.2531559467315674,0.9972221851348877,,,,,,,
,,,,,,,,,,,,,,,,,,,,,,,,,,0.007104192860424519,0.20090250670909882,0.18870271742343903,0.007104192860424519,0.20090250670909882,0.18870271742343903,
,,,,,,,,,,,,,,,,,,,,,,,,,,0.0030819885432720184,0.17267689108848572,0.16765235364437103,0.0030819885432720184,0.17267689108848572,0.16765235364437103,
,,,,,,,,,,,,,,,,,,,,,,,,,,0.002655188785865903,0.15748168528079987,0.15243852138519287,0.002655188785865903,0.15748168528079987,0.15243852138519287,
,,,,,,,,,,,,,,,,,,,,,,,,,,0.0026210499927401543,0.14847473800182343,0.14287538826465607,0.0026210499927401543,0.14847473800182343,0.14287538826465607,
,,,,,,,,,,,,,,,,,,,,,,,,,,0.002998849144205451,0.14400137960910797,0.14133873581886292,0.002998849144205451,0.14400137960910797,0.14133873581886292,
,,,,,,,,,,,,,,,,,,,,,,,,,,0.0018374559003859758,0.13816727697849274,0.1334919035434723,0.0018374559003859758,0.13816727697849274,0.1334919035434723,
,,,,,,,,,,,,,,,,,,,,,,,,,,,,,,,,-2.12
4585452000.0,86.58,-1.0499999523162842,11990518784.0,17.011305350077457,32.0,-0.00673530250787735,135168.0,314.75816464424133,5.56325818745762e-15,0.0,2.032695770263672,-0.020326972007751465,0.07658638060092926,-0.02032695710659027,-1.5832483768463135e-08,0.0,0.06401246041059494,0.38614967465400696,0.5789958527236096,-0.6114659905433655,0.39423027634620667,-0.5474535226821899,0.5951309204101562,240.78105211257935,0.9974997043609619,,,,,,,
4585452000.0,90.19,-1.0800000429153442,12041169408.0,1752.15945955566,33.0,-0.006351749878376722,139264.0,317.0958514213562,5.577135975265435e-15,0.0,2.043895959854126,-0.020438961684703827,0.10649635642766953,-0.020438959822058678,-2.7939677238464355e-09,0.0,0.03390009328722954,0.4603208005428314,0.502800829155806,-0.5120753645896912,0.39743685722351074,-0.4781752824783325,0.6528229117393494,2.337686777114868,0.9973289966583252,,,,,,,
4585452000.0,90.44,-1.3600000143051147,12041169408.0,1745.6828754928442,34.0,-0.008578355424106121,143360.0,319.44221115112305,5.577135975265435e-15,0.0,2.070662498474121,-0.020706620067358017,0.07940534502267838,-0.020706623792648315,3.725290298461914e-09,0.0,0.018202951177954674,0.3981432616710663,0.5213992845807897,-0.5350359678268433,0.3804832994937897,-0.5168330669403076,0.5755097270011902,2.3463597297668457,0.9972622394561768,,,,,,,
4585452000.0,88.04,-1.2699999809265137,12041169408.0,1796.6137425683887,35.0,-0.008369836956262589,147456.0,321.72205567359924,5.7783638984787444e-15,0.0,2.104992151260376,-0.021049918606877327,0.08949005603790283,-0.021049920469522476,1.862645149230957e-09,0.0,0.014908861368894577,0.42284926772117615,0.48824358249242295,-0.5213780403137207,0.36592328548431396,-0.506469190120697,0.5910904407501221,2.2798445224761963,0.99741530418396,,,,,,,
4585452000.0,82.27,-0.9300000071525574,12041169408.0,1773.8427429971398,36.0,-0.0040240101516246796,151552.0,324.0311667919159,5.452235884995105e-15,0.0,2.0857553482055664,-0.020857566967606544,0.06406410038471222,-0.0208575539290905,-1.30385160446167e-08,0.0,0.08041448891162872,0.348842978477478,0.5574096078636201,-0.4687172770500183,0.38645920157432556,-0.3883028030395508,0.5243593454360962,2.3091111183166504,0.9975261688232422,,,,,,,
4585452000.0,82.43,-1.100000023841858,12041169408.0,1799.1055281865329,37.0,-0.009612568654119968,155648.0,326.30785369873047,5.528563717938084e-15,0.0,2.0488646030426025,-0.020488644018769264,0.12048835307359695,-0.020488645881414413,1.862645149230957e-09,0.0,-0.03218261897563934,0.4898974895477295,0.49880559711506045,-0.45307832956314087,0.3889004588127136,-0.4852609634399414,0.6919936537742615,2.276686906814575,0.9975769519805908,,,,,,,
4585452000.0,89.03,-1.2400000095367432,12041169408.0,1762.8849538470538,38.0,-0.00470584025606513,159744.0,328.6313178539276,4.855491009259083e-15,0.0,2.059096336364746,-0.02059095911681652,0.07509408891201019,-0.02059096284210682,3.725290298461914e-09,0.0,0.03707168251276016,0.38581109046936035,0.5988942728703276,-0.4332908093929291,0.4161769449710846,-0.3962191343307495,0.6091795563697815,2.3234641551971436,0.9971916675567627,,,,,,,
4585452000.0,94.11,-1.440000057220459,12041169408.0,1803.639787924781,39.0,-0.01364923920482397,163840.0,330.9022812843323,5.9223459469848194e-15,0.0,1.9487154483795166,-0.01948714628815651,0.1889892816543579,-0.019487153738737106,7.450580596923828e-09,0.0,-0.12125115096569061,0.6027980446815491,0.6099258338386881,-0.5226184725761414,0.5589538812637329,-0.6438696384429932,0.9651575684547424,2.270963430404663,0.9971737861633301,,,,,,,
4585452000.0,96.3,-1.7599999904632568,12041169408.0,1783.4998621358643,40.0,-0.0063735670410096645,167936.0,333.1988892555237,5.844283390565863e-15,0.0,2.0387401580810547,-0.020387394353747368,0.08849233388900757,-0.020387401804327965,7.450580596923828e-09,0.0,0.06377297639846802,0.41588449478149414,0.5700173935364412,-0.543441891670227,0.49082550406455994,-0.47966891527175903,0.6342306733131409,2.2966079711914062,0.9972376823425293,,,,,,,
4585452000.0,93.85,-1.399999976158142,12041169408.0,1815.2686157319688,41.0,-0.0036695818416774273,172032.0,335.45530462265015,5.85122228446977e-15,0.0,1.982530117034912,-0.01982528157532215,0.060381144285202026,-0.019825300201773643,1.862645149230957e-08,0.0,0.11821982264518738,0.3268217146396637,0.6806641170121751,-0.540762186050415,0.5293384790420532,-0.42254236340522766,0.5783450603485107,2.256415367126465,0.9970681667327881,,,,,,,
4585452000.0,90.57,-0.6800000071525574,12041169408.0,1786.0682686649714,42.0,-0.006179974414408207,176128.0,337.74861001968384,5.6968318951078345e-15,0.0,2.0215611457824707,-0.020215604454278946,0.09997403621673584,-0.020215611904859543,7.450580596923828e-09,0.0,0.009196151979267597,0.44711557030677795,0.6737763001567811,-0.5235596299171448,0.576039731502533,-0.5143634676933289,0.7828202843666077,2.2933053970336914,0.9977216720581055,,,,,,,
4585452000.0,95.48,-1.0,12041169408.0,1801.573818214155,43.0,-0.008291360922157764,180224.0,340.022177696228,5.528563717938084e-15,0.0,2.0211260318756104,-0.020211264491081238,0.14165161550045013,-0.02021126076579094,-3.725290298461914e-09,0.0,0.010183222591876984,0.5322299599647522,0.7079231090405524,-0.6230725646018982,0.7158800959587097,-0.6128894090652466,0.9848060607910156,2.2735676765441895,0.997459888458252,,,,,,,
4585452000.0,99.04,-1.4500000476837158,12041169408.0,1773.9460464347853,44.0,-0.009766295552253723,184320.0,342.33115434646606,6.005612673831706e-15,0.0,1.9767382144927979,-0.019767383113503456,0.1113370954990387,-0.019767381250858307,-1.862645149230957e-09,0.0,0.010203802958130836,0.47183093428611755,0.7291779056729877,-0.6025214791297913,0.7149394750595093,-0.5923177003860474,0.9066598415374756,2.308976650238037,0.9973647594451904,,,,,,,
4585452000.0,94.49,-1.5,12041169408.0,1819.0138565865002,45.0,-0.008050784468650818,188416.0,344.58292388916016,5.743669428959208e-15,0.0,2.053830146789551,-0.02053830400109291,0.10397550463676453,-0.020538300275802612,-3.725290298461914e-09,0.0,0.006935258395969868,0.4560193717479706,0.7600239395655625,-0.5079804062843323,0.7170301675796509,-0.5010451078414917,0.9308920502662659,2.251769542694092,0.9973163604736328,,,,,,,
4585452000.0,96.52,-1.4199999570846558,12041169408.0,1826.5538061875566,46.0,-0.006354330573230982,192512.0,346.8253982067108,5.381112222480056e-15,0.0,1.9943504333496094,-0.01994349993765354,0.09329088777303696,-0.01994350366294384,3.725290298461914e-09,0.0,-0.0033738669008016586,0.43199071288108826,0.7359446463159116,-0.3941739797592163,0.6384634971618652,-0.39754781126976013,0.8406726121902466,2.242474317550659,0.9971413612365723,,,,,,,
4585452000.0,94.76,-1.190000057220459,12041169408.0,1738.4597153923464,47.0,-0.005300282966345549,196608.0,349.1815068721771,5.863365348801608e-15,0.0,1.9733015298843384,-0.019733022898435593,0.09132271260023117,-0.019733015447854996,-7.450580596923828e-09,0.0,0.06010361760854721,0.42317456007003784,0.7591398635434954,-0.4780839681625366,0.7602753639221191,-0.4179803729057312,0.8622577786445618,2.3561086654663086,0.997361421585083,,,,,,,
4585452000.0,92.83,-1.100000023841858,12041169408.0,1804.1284595450516,48.0,-0.007423770613968372,200704.0,351.4518551826477,5.700301342059788e-15,0.0,1.9868184328079224,-0.019868185743689537,0.11465383321046829,-0.019868183881044388,-2.3283064365386963e-09,0.0,-0.01937883347272873,0.4785269498825073,0.8132537071473274,-0.3250991106033325,0.8763592839241028,-0.34447795152664185,1.107338547706604,2.270348310470581,0.9972028732299805,,,,,,,
4586216000.0,95.79,-1.090000033378601,12041169408.0,1718.3824900492093,49.0,-0.00504966638982296,204800.0,353.83549213409424,6.153064169289735e-15,0.0,1.9721248149871826,-0.01972125470638275,0.08864466845989227,-0.019721247255802155,-7.450580596923828e-09,0.0,-0.0243455171585083,0.420404314994812,0.7778071395521611,-0.2306329309940338,0.7540805339813232,-0.2549784481525421,0.8918711543083191,2.383636951446533,0.9973282814025879,,,,,,,
4586216000.0,97.9,-1.2400000095367432,12041169408.0,1808.9775865128006,50.0,-0.009306225925683975,208896.0,356.0997545719147,6.024694632067451e-15,0.0,1.9412970542907715,-0.019412966445088387,0.1332111358642578,-0.019412970170378685,3.725290298461914e-09,0.0,-0.05246131867170334,0.513550877571106,0.8265707889750122,-0.4239848554134369,1.1079787015914917,-0.47644615173339844,1.2331682443618774,2.2642624378204346,0.9974210262298584,,,,,,,
4586216000.0,91.61,-1.4600000381469727,12041169408.0,1817.2042727684577,51.0,-0.008224597200751305,212992.0,358.3537664413452,6.70991040507829e-15,0.0,1.9440076351165771,-0.019440071657299995,0.15580467879772186,-0.019440075382590294,3.725290298461914e-09,0.0,4.325341433286667e-05,0.5582879781723022,0.8369298011316163,-0.5872732400894165,1.2574330568313599,-0.5872299671173096,1.3825185298919678,2.254011869430542,0.9973556995391846,,,,,,,
4586216000.0,93.85,-1.0,12041169408.0,1759.400208323583,52.0,-0.0017337705940008163,217088.0,360.6818325519562,6.638786742563241e-15,0.0,1.9795615673065186,-0.019795609638094902,0.10843490809202194,-0.01979561522603035,5.587935447692871e-09,0.0,0.00526443962007761,0.46571993827819824,0.8511066881642418,-0.23794829845428467,1.1508071422576904,-0.23268385231494904,1.2069443464279175,2.328066110610962,0.9971268177032471,,,,,,,
4586216000.0,92.16,-0.6000000238418579,12041169408.0,1782.130241102896,53.0,-0.0041527352295815945,221184.0,362.9802055358887,7.400330348517059e-15,0.0,1.9583741426467896,-0.019583746790885925,0.10744430869817734,-0.019583741202950478,-5.587935447692871e-09,0.0,-0.020601507276296616,0.46315935254096985,0.8179003909874227,-0.14066848158836365,1.0862817764282227,-0.16126997768878937,1.0853654146194458,2.298372983932495,0.9977962970733643,,,,,,,
4586216000.0,88.9,-0.6100000143051147,12041169408.0,1817.0968308447661,54.0,-0.0034893606789410114,225280.0,365.23435068130493,7.12277459236077e-15,0.0,1.9359934329986572,-0.019359929487109184,0.04833323508501053,-0.019359933212399483,3.725290298461914e-09,0.0,-0.038591817021369934,0.3085455894470215,0.8475176461665986,0.058339208364486694,0.6841336488723755,0.01974739134311676,0.790149986743927,2.2541451454162598,0.9973056316375732,,,,,,,
4586216000.0,91.0,-0.7300000190734863,12041169408.0,1803.4924807542898,55.0,-0.003491640090942383,229376.0,367.50549960136414,7.37257477290143e-15,0.0,1.9228583574295044,-0.019228583201766014,0.06915529817342758,-0.019228583201766014,0.0,0.0,-0.07404111325740814,0.3645009398460388,0.8302119400910266,0.053546689450740814,0.7318109273910522,-0.020494425669312477,0.8845962882041931,2.271148920059204,0.9972531795501709,,,,,,,
4586216000.0,94.76,-0.5199999809265137,12041169408.0,1783.1559177250992,56.0,-0.004042337648570538,233472.0,369.8025505542755,8.250344851745695e-15,0.0,1.8966460227966309,-0.0189664326608181,0.07744427025318146,-0.01896646060049534,2.7939677238464355e-08,0.0,-0.08008936047554016,0.3853705823421478,0.8091561811443831,0.02211519330739975,0.7339897155761719,-0.05797417089343071,0.8821440935134888,2.297050952911377,0.997359037399292,,,,,,,
4586216000.0,95.94,-0.7400000095367432,12041169408.0,1814.1232985996826,57.0,-0.009530875831842422,237568.0,372.0603904724121,8.72045491373541e-15,0.0,1.8659886121749878,-0.01865987852215767,0.10719361901283264,-0.018659885972738266,7.450580596923828e-09,0.0,-0.04400017857551575,0.4609805643558502,0.9003810977805318,-0.4921092987060547,1.3304122686386108,-0.536109447479248,1.4605342149734497,2.2578399181365967,0.9974071979522705,,,,,,,
4586216000.0,94.18,-0.9100000262260437,12041169408.0,1824.2052843318475,58.0,-0.005366820842027664,241664.0,374.3057518005371,8.444633881055097e-15,0.0,1.9773204326629639,-0.01977320946753025,0.20268750190734863,-0.019773203879594803,-5.587935447692871e-09,0.0,0.05790015310049057,0.6341299414634705,0.8754481755306442,-0.838961660861969,1.801772117614746,-0.7810615301132202,1.7968143224716187,2.245361328125,0.9972577095031738,,,,,,,
4586216000.0,97.03,-1.1699999570846558,12041169408.0,1732.419357584162,59.0,-0.008669880218803883,245760.0,376.67007541656494,8.002279394681011e-15,0.0,1.9062209129333496,-0.019062208011746407,0.21261486411094666,-0.019062208011746407,0.0,0.0,0.035629697144031525,0.6512017846107483,0.8889405090070002,-0.9478403329849243,1.881819486618042,-0.9122106432914734,1.954059362411499,2.364323616027832,0.9976496696472168,,,,,,,
4586480000.0,90.08,-1.559999942779541,12041169408.0,1801.7397076670795,60.0,-0.007592136971652508,249856.0,378.9434337615967,8.939030071708487e-15,0.0,1.8894004821777344,-0.018893998116254807,0.1926988661289215,-0.018894003704190254,5.587935447692871e-09,0.0,0.028440911322832108,0.6202279925346375,0.7690085459019369,-0.4744521975517273,1.2932202816009521,-0.4460112750530243,1.2904863357543945,2.2733583450317383,0.997159481048584,,,,,,,
4586744000.0,91.44,-1.25,12041169408.0,1784.703786156369,61.0,-0.0040068961679935455,253952.0,381.2384924888611,9.707512571566213e-15,0.0,1.805774211883545,-0.01805773377418518,0.0671452209353447,-0.018057741224765778,7.450580596923828e-09,0.0,-0.01624990813434124,0.36614081263542175,0.8426244353365536,-0.18953056633472443,0.8190359473228455,-0.20578047633171082,0.9229528307914734,2.2950587272644043,0.9972610473632812,,,,,,,
4586744000.0,96.69,-1.0199999809265137,12041169408.0,1769.9306666106218,62.0,-0.00720804650336504,258048.0,383.55270743370056,9.620776397767372e-15,0.0,1.885124921798706,-0.018851248547434807,0.09266160428524017,-0.018851248547434807,0.0,0.0,-0.06300428509712219,0.4259083867073059,0.8286892931285091,-0.32024893164634705,0.8244967460632324,-0.38325321674346924,1.0290203094482422,2.3142149448394775,0.997359037399292,,,,,,,
4586744000.0,99.92,-1.2699999809265137,12041169408.0,1821.3022944873169,63.0,-0.00413817074149847,262144.0,385.80164766311646,1.0475995071423938e-14,0.0,1.8270437717437744,-0.018270429223775864,0.07303515076637268,-0.01827043667435646,7.450580596923828e-09,0.0,0.003859512507915497,0.382218599319458,0.7059042816341796,-0.14272941648960114,0.6336603760719299,-0.13886991143226624,0.7048025727272034,2.2489402294158936,0.9971578121185303,,,,,,,
,,,,,,,,,,,,,,,,,,,,,,,,,,0.007493596524000168,0.22934456169605255,0.2024853378534317,0.007493596524000168,0.22934456169605255,0.2024853378534317,
,,,,,,,,,,,,,,,,,,,,,,,,,,0.005795186385512352,0.18683351576328278,0.18245600163936615,0.005795186385512352,0.18683351576328278,0.18245600163936615,
,,,,,,,,,,,,,,,,,,,,,,,,,,0.003326590172946453,0.17621611058712006,0.16279731690883636,0.003326590172946453,0.17621611058712006,0.16279731690883636,
,,,,,,,,,,,,,,,,,,,,,,,,,,0.002475898014381528,0.16724762320518494,0.15393774211406708,0.002475898014381528,0.16724762320518494,0.15393774211406708,
,,,,,,,,,,,,,,,,,,,,,,,,,,0.002925675828009844,0.1694536805152893,0.1571522206068039,0.002925675828009844,0.1694536805152893,0.1571522206068039,
,,,,,,,,,,,,,,,,,,,,,,,,,,0.003340276191011071,0.16196104884147644,0.14921507239341736,0.003340276191011071,0.16196104884147644,0.14921507239341736,
,,,,,,,,,,,,,,,,,,,,,,,,,,,,,,,,-1.96
4601088000.0,98.76,-0.8899999856948853,11990521856.0,17.034264886997466,64.0,-0.0041413637809455395,266240.0,626.2581644058228,6.5156213757688874e-15,0.0,1.8971573114395142,-0.01897156983613968,0.04556751996278763,-0.018971573561429977,3.725290298461914e-09,0.0,0.030249256640672684,0.3004031777381897,0.8965239432285929,-0.2940938174724579,0.8041393756866455,-0.2638445496559143,0.9338659644126892,240.4565167427063,0.9972882270812988,,,,,,,
4601088000.0,89.02,-0.5400000214576721,12041169408.0,1792.83902332733,65.0,-0.003483281936496496,270336.0,628.542809009552,6.42194630806614e-15,0.0,1.9052876234054565,-0.019052868708968163,0.07474596053361893,-0.01905287615954876,7.916241884231567e-09,0.0,0.05973011255264282,0.3820469379425049,0.8420535390390776,-0.3380364775657654,0.8950943350791931,-0.27830636501312256,0.9613063335418701,2.284644603729248,0.9974517822265625,,,,,,,
4601088000.0,84.94,-0.699999988079071,12041169408.0,1805.1875879484003,66.0,-0.0037672158796340227,274432.0,630.8118252754211,6.6405214660392176e-15,0.0,1.9746615886688232,-0.019746599718928337,0.04525557532906532,-0.01974661462008953,1.4901161193847656e-08,0.0,0.0027291439473628998,0.30087506771087646,0.8847826781097987,-0.28242725133895874,0.7762345671653748,-0.27969807386398315,0.8863949775695801,2.2690162658691406,0.9973881244659424,,,,,,,
4601088000.0,85.91,-0.7300000190734863,12041169408.0,1776.442720195009,67.0,-0.005539083853363991,278528.0,633.117556810379,6.480926906249351e-15,0.0,1.9338185787200928,-0.019338170066475868,0.06688503175973892,-0.019338184967637062,1.4901161193847656e-08,0.0,0.033721841871738434,0.36423248052597046,0.7915651779829347,-0.2884993553161621,0.8011180758476257,-0.2547775208950043,0.7977990508079529,2.3057315349578857,0.9986839294433594,,,,,,,
4601088000.0,82.39,-0.6800000071525574,12041169408.0,1759.3196710231496,68.0,-0.0027139524463564157,282624.0,635.4457294940948,7.164407955784213e-15,0.0,1.8442662954330444,-0.018442654982209206,0.05176262557506561,-0.018442662432789803,7.450580596923828e-09,0.0,0.05004337802529335,0.3178766965866089,0.8690056903076163,-0.2882430851459503,0.8374744653701782,-0.23819972574710846,0.878278911113739,2.3281726837158203,0.997307300567627,,,,,,,
4601088000.0,85.53,-0.4099999964237213,12041169408.0,1808.1491930204488,69.0,-0.003407907672226429,286720.0,637.711029291153,6.4427629897778615e-15,0.0,1.9034979343414307,-0.019034981727600098,0.03845161199569702,-0.0190349780023098,-4.6566128730773926e-09,0.0,0.038165923207998276,0.27470895648002625,0.8877193588332672,-0.25958091020584106,0.7924466133117676,-0.2214149683713913,0.8198235034942627,2.2652997970581055,0.9972400665283203,,,,,,,
4601088000.0,90.81,-0.4000000059604645,12041169408.0,1758.7874454380155,70.0,-0.0012319660745561123,290816.0,640.03990650177,7.239001065251216e-15,0.0,1.8379364013671875,-0.018379349261522293,0.06475073099136353,-0.018379364162683487,1.5832483768463135e-08,0.0,0.09107472747564316,0.3481902480125427,0.7783412661472255,-0.23202085494995117,0.7921131253242493,-0.1409461498260498,0.7395612597465515,2.3288772106170654,0.9973106384277344,,,,,,,
4601088000.0,92.85,-0.3700000047683716,12041169408.0,1814.3066438134101,71.0,-0.002337272744625807,294912.0,642.2975182533264,7.768091725424142e-15,0.0,1.8271138668060303,-0.018271123990416527,0.03830903023481369,-0.01827113889157772,1.4901161193847656e-08,0.0,0.04618140310049057,0.2729533314704895,0.890043660944849,-0.2195902168750763,0.7553883194923401,-0.17340883612632751,0.8231486678123474,2.2576117515563965,0.9974405765533447,,,,,,,
4601088000.0,90.93,-0.25999999046325684,12041169408.0,1748.5033729171864,72.0,0.00013811670942232013,299008.0,644.64009308815,7.811459812323562e-15,0.0,1.871954083442688,-0.018719550222158432,0.01711704581975937,-0.018719540908932686,-1.0244548320770264e-08,0.0,0.030377959832549095,0.1825360506772995,0.925228812268879,-0.087558813393116,0.642273485660553,-0.05718085169792175,0.6675464510917664,2.3425748348236084,0.997753381729126,,,,,,,
4601088000.0,93.84,-0.1899999976158142,12041169408.0,1779.3877165175563,73.0,0.00041622002026997507,303104.0,646.9420084953308,8.57300341827738e-15,0.0,1.81050705909729,-0.018105076625943184,0.02916138246655464,-0.018105071038007736,-5.587935447692871e-09,0.0,0.04998970776796341,0.23629942536354065,0.7537847875907839,-0.027245402336120605,0.4603815972805023,0.022744303569197655,0.4762173891067505,2.301915407180786,0.9971122741699219,,,,,,,
4601088000.0,94.32,-0.3499999940395355,12041169408.0,1786.018320861778,74.0,-0.004175957292318344,307200.0,649.2353780269623,7.773295895852073e-15,0.0,1.9104740619659424,-0.019104739651083946,0.0378650464117527,-0.019104739651083946,0.0,0.0,0.012790498323738575,0.27492716908454895,0.886248014817997,-0.18865518271923065,0.7298319339752197,-0.17586468160152435,0.8151512145996094,2.2933695316314697,0.9975759983062744,,,,,,,
4601088000.0,87.21,-0.47999998927116394,12041169408.0,1812.4838448750995,75.0,-0.0030753447208553553,311296.0,651.4952602386475,9.126380207113982e-15,0.0,1.799752116203308,-0.01799752190709114,0.04529545083642006,-0.01799752004444599,-9.313225746154785e-10,0.0,0.054430775344371796,0.29605671763420105,0.8003890000680494,-0.07050641626119614,0.6518822312355042,-0.01607564650475979,0.6626477837562561,2.2598822116851807,0.9971528053283691,,,,,,,
4601088000.0,85.12,-0.3499999940395355,12041169408.0,1753.9441771876893,76.0,-0.0012628455879166722,315392.0,653.8305683135986,9.084746843690539e-15,0.0,1.8212535381317139,-0.01821252703666687,0.042782627046108246,-0.018212534487247467,6.51925802230835e-09,0.0,0.05526922270655632,0.2872816324234009,0.8733799854552298,-0.12525421380996704,0.7917971014976501,-0.06998499482870102,0.8073403835296631,2.335308074951172,0.997582197189331,,,,,,,
4601088000.0,90.78,-0.1599999964237213,12041169408.0,1786.4419445620626,77.0,-0.001971582183614373,319488.0,656.1233940124512,1.0135989270132484e-14,0.0,1.7769582271575928,-0.01776958629488945,0.045793186873197556,-0.01776958256959915,-3.725290298461914e-09,0.0,0.008371569216251373,0.30255353450775146,0.8775178715045606,-0.04950612783432007,0.7988377213478088,-0.041134558618068695,0.8645016551017761,2.292825698852539,0.9973602294921875,,,,,,,
4601088000.0,92.54,-0.4000000059604645,12041169408.0,1801.2459080057497,78.0,-0.002825635951012373,323584.0,658.3973755836487,1.049681175313566e-14,0.0,1.8164434432983398,-0.018164437264204025,0.04851846769452095,-0.018164433538913727,-4.190951585769653e-09,0.0,-0.004899936728179455,0.3115070164203644,0.7744295484097887,0.04422683268785477,0.596209704875946,0.03932689502835274,0.6558834910392761,2.2739815711975098,0.997490644454956,,,,,,,
4601088000.0,90.31,-0.550000011920929,12041169408.0,1831.1404088227957,79.0,-0.0036858811508864164,327680.0,660.6342329978943,8.501879755762332e-15,0.0,1.9218978881835938,-0.019218970090150833,0.055476609617471695,-0.01921897754073143,7.450580596923828e-09,0.0,-0.014799929223954678,0.33280807733535767,0.7879326272786622,0.00384652242064476,0.639034628868103,-0.01095341145992279,0.7226980924606323,2.2368574142456055,0.9972145557403564,,,,,,,
4601088000.0,87.35,-0.3199999928474426,12041169408.0,1821.8817280096512,80.0,0.0001423134672222659,331776.0,662.8824579715729,1.0281706042114536e-14,0.0,1.8102116584777832,-0.01810210943222046,0.034227341413497925,-0.018102116882801056,7.450580596923828e-09,0.0,0.04258142411708832,0.2581816613674164,0.8370817481380018,0.10286574065685272,0.6029096841812134,0.14544716477394104,0.6396472454071045,2.248224973678589,0.9973113536834717,,,,,,,
4601088000.0,92.09,-0.10999999940395355,12041169408.0,1741.7190597930219,81.0,-0.00014277768786996603,335872.0,665.2341575622559,1.0149867057940298e-14,0.0,1.7610459327697754,-0.017610466107726097,0.02571718581020832,-0.0176104586571455,-7.450580596923828e-09,0.0,0.019934426993131638,0.2259412556886673,0.8750954047966001,0.12417585402727127,0.6075998544692993,0.1441102772951126,0.6393024325370789,2.3516995906829834,0.9974849224090576,,,,,,,
4601088000.0,93.02,0.019999999552965164,12041169408.0,1778.1195429142276,82.0,0.0,339968.0,667.5377147197723,1.0349360257677631e-14,0.0,1.8380107879638672,-0.018380116671323776,0.03146719932556152,-0.01838010735809803,-1.0244548320770264e-08,0.0,0.02238476648926735,0.24989712238311768,0.8617440894889941,0.07872192561626434,0.6904169917106628,0.10110669583082199,0.6720775365829468,2.3035571575164795,0.998610258102417,,,,,,,
4601088000.0,89.81,-0.1599999964237213,12041169408.0,1783.6500323250098,83.0,-0.0011519030667841434,344064.0,669.8341293334961,1.0342421363773724e-14,0.0,1.7677412033081055,-0.017677411437034607,0.03562847152352333,-0.017677411437034607,0.0,0.0,-0.00628728698939085,0.2668984830379486,0.8251238207903426,0.12051984667778015,0.6112618446350098,0.11423255503177643,0.6382352709770203,2.296414613723755,0.9975733757019043,,,,,,,
4601088000.0,97.76,-0.18000000715255737,12041169408.0,1789.583501372823,84.0,-0.0024427706375718117,348160.0,672.1229300498962,1.1556727796957489e-14,0.0,1.690032958984375,-0.016900330781936646,0.06713027507066727,-0.016900328919291496,-2.7939677238464355e-09,0.0,-0.035480014979839325,0.3647385239601135,0.7985144075772245,0.12903648614883423,0.6310423016548157,0.0935564786195755,0.8125678896903992,2.2888007164001465,0.9974877834320068,,,,,,,
4601088000.0,100.66,-0.28999999165534973,12041169408.0,1764.7595767955154,85.0,-0.002018723636865616,352256.0,674.4439260959625,1.1449174941446927e-14,0.0,1.7091505527496338,-0.01709151826798916,0.02400980331003666,-0.017091505229473114,-1.30385160446167e-08,0.0,-0.025096997618675232,0.2177184373140335,0.8988772646840981,0.1563778668642044,0.6180412173271179,0.13128086924552917,0.6846534609794617,2.320996046066284,0.9975361824035645,,,,,,,
4601088000.0,99.11,-0.25999999046325684,12041169408.0,1826.0005091157764,86.0,0.00043436128180474043,356352.0,676.6870799064636,1.0441300601904402e-14,0.0,1.8393778800964355,-0.018393782898783684,0.028956126421689987,-0.018393779173493385,-3.725290298461914e-09,0.0,0.024380235001444817,0.2394407093524933,0.876794507231617,-0.006552685052156448,0.6896978616714478,0.01782754808664322,0.6821548342704773,2.2431538105010986,0.9973320960998535,,,,,,,
4601088000.0,94.52,-0.25999999046325684,12041169408.0,1735.9328182821187,87.0,-0.0024660546332597733,360448.0,679.0466182231903,1.1926223897340549e-14,0.0,1.7229477167129517,-0.017229480668902397,0.03432253748178482,-0.0172294769436121,-3.725290298461914e-09,0.0,0.009338798001408577,0.26186755299568176,0.844019238722285,0.012457787990570068,0.5976473093032837,0.021796587854623795,0.6630498170852661,2.3595383167266846,0.9972987174987793,,,,,,,
4601088000.0,95.68,-0.28999999165534973,12041169408.0,1786.4607067679196,88.0,-0.0026168464682996273,364544.0,681.3394198417664,1.0927023175177908e-14,0.0,1.749595046043396,-0.01749594882130623,0.05895499512553215,-0.017495950683951378,1.3969838619232178e-09,0.0,0.001000898890197277,0.34342071413993835,0.8228242368250998,-0.012390456162393093,0.6885831356048584,-0.011389559134840965,0.8158763647079468,2.29280161857605,0.997368574142456,,,,,,,
4601088000.0,92.83,-0.49000000953674316,12041169408.0,1790.614418266324,89.0,-0.0029071555472910404,368640.0,683.6269028186798,1.1541115285673698e-14,0.0,1.7816336154937744,-0.0178163331001997,0.05666071176528931,-0.01781633496284485,1.862645149230957e-09,0.0,-0.020031757652759552,0.336076945066452,0.8373038547135493,-0.028801975771784782,0.6502446532249451,-0.048833735287189484,0.8332016468048096,2.287482976913452,0.9972724914550781,,,,,,,
4601088000.0,95.79,-0.25999999046325684,12041169408.0,1800.5108106929777,90.0,-0.001749665942043066,372736.0,685.9018127918243,1.0642528525117712e-14,0.0,1.821544885635376,-0.01821545511484146,0.019137002527713776,-0.018215447664260864,-8.381903171539307e-09,0.0,0.010319862514734268,0.19538891315460205,0.8859599970791108,0.06669247150421143,0.4657493829727173,0.0770123302936554,0.5785905122756958,2.2749099731445312,0.9974405765533447,,,,,,,
4601088000.0,97.91,-0.38999998569488525,12041169408.0,1829.181391866448,91.0,-0.0010209855390712619,376832.0,688.1410658359528,9.879250195687916e-15,0.0,1.8125712871551514,-0.01812572218477726,0.04657600820064545,-0.018125712871551514,-9.313225746154785e-09,0.0,0.010887833312153816,0.30505111813545227,0.8573847209424669,0.013490870594978333,0.6262584924697876,0.024378702044487,0.8077735900878906,2.239253044128418,0.9973776340484619,,,,,,,
4601088000.0,96.05,-0.3100000023841858,12041169408.0,1817.6366675335244,92.0,-0.0021949666552245617,380928.0,690.3945415019989,1.0894063429134349e-14,0.0,1.7688953876495361,-0.01768895611166954,0.019094685092568398,-0.01768895424902439,-1.862645149230957e-09,0.0,0.004698168020695448,0.19538837671279907,0.9088770914854614,0.07474714517593384,0.5926535129547119,0.07944531738758087,0.6472691893577576,2.2534756660461426,0.9973440170288086,,,,,,,
4601088000.0,92.87,-0.550000011920929,12041169408.0,1812.157303624416,93.0,-0.002197747118771076,385024.0,692.6548309326172,9.289444213855802e-15,0.0,1.8087658882141113,-0.018087659031152725,0.056846823543310165,-0.018087659031152725,0.0,0.0,-0.015946678817272186,0.3368487060070038,0.8608655783835271,0.059381917119026184,0.7678365707397461,0.0434352345764637,0.903062105178833,2.260289430618286,0.9974782466888428,,,,,,,
4601088000.0,95.4,-0.2199999988079071,12041169408.0,1832.754558691638,94.0,-0.001468616770580411,389120.0,694.8897182941437,9.854964067024241e-15,0.0,1.775578498840332,-0.01775578409433365,0.03879644721746445,-0.01775578409433365,0.0,0.0,0.012026431038975716,0.2783292531967163,0.9028751084110199,0.057720720767974854,0.834083616733551,0.06974714994430542,0.8930866122245789,2.2348873615264893,0.9972858428955078,,,,,,,
4601088000.0,97.59,-0.44999998807907104,12041169408.0,1771.7146981353644,95.0,-0.005886434577405453,393216.0,697.201602935791,9.055256544598933e-15,0.0,1.777221441268921,-0.017772221937775612,0.04950752854347229,-0.017772214487195015,-7.450580596923828e-09,0.0,-0.03757448494434357,0.3124532699584961,0.9036691615229964,-0.04100076109170914,0.9428755044937134,-0.0785752460360527,1.006705403327942,2.311884641647339,0.9972677230834961,,,,,,,
,,,,,,,,,,,,,,,,,,,,,,,,,,0.0018376868683844805,0.06122118607163429,0.043824512511491776,0.0018376868683844805,0.06122118607163429,0.043824512511491776,
,,,,,,,,,,,,,,,,,,,,,,,,,,0.0011096763191744685,0.04860907047986984,0.03917438164353371,0.0011096763191744685,0.04860907047986984,0.03917438164353371,
,,,,,,,,,,,,,,,,,,,,,,,,,,0.0011743372306227684,0.043211959302425385,0.03669985383749008,0.0011743372306227684,0.043211959302425385,0.03669985383749008,
,,,,,,,,,,,,,,,,,,,,,,,,,,0.0014084959402680397,0.042162612080574036,0.03521060571074486,0.0014084959402680397,0.042162612080574036,0.03521060571074486,
,,,,,,,,,,,,,,,,,,,,,,,,,,0.0011719337198883295,0.04033126309514046,0.03313017264008522,0.0011719337198883295,0.04033126309514046,0.03313017264008522,
,,,,,,,,,,,,,,,,,,,,,,,,,,0.0009996824664995074,0.03882065415382385,0.03324311971664429,0.0009996824664995074,0.03882065415382385,0.03324311971664429,
,,,,,,,,,,,,,,,,,,,,,,,,,,,,,,,,-1.93
4601784000.0,92.77,-0.30000001192092896,11990521856.0,17.019615918474063,96.0,0.002657440025359392,397312.0,937.8650832176208,7.696968062909093e-15,0.0,1.9350652694702148,-0.019350674003362656,0.04779382795095444,-0.019350651651620865,-2.2351741790771484e-08,0.0,0.07868649065494537,0.29902827739715576,0.7790797061197514,-0.032248832285404205,0.7546319365501404,0.046437665820121765,0.6362012028694153,240.66348028182983,0.9974615573883057,,,,,,,
4601784000.0,83.15,-0.36000001430511475,12041169408.0,1799.208403435446,97.0,-0.005775731056928635,401408.0,940.1416399478912,7.776765342804026e-15,0.0,1.8745875358581543,-0.01874588616192341,0.02423384226858616,-0.018745874986052513,-1.1175870895385742e-08,0.0,-0.023832667618989944,0.21888670325279236,0.9289279803452368,-0.18915913999080658,0.7943038940429688,-0.21299180388450623,0.8210508227348328,2.2765567302703857,0.9970855712890625,,,,,,,
4601784000.0,80.89,-0.3700000047683716,12041169408.0,1722.8843895657797,98.0,0.00044593497295863926,405504.0,942.5190484523773,7.761152831520235e-15,0.0,1.8155078887939453,-0.018155068159103394,0.028776932507753372,-0.01815507933497429,1.1175870895385742e-08,0.0,0.028155885636806488,0.23827499151229858,0.875223870848441,-0.013293500989675522,0.7324588894844055,0.014862380921840668,0.6745477318763733,2.377408504486084,0.9973845481872559,,,,,,,
4601784000.0,83.01,-0.15000000596046448,12041169408.0,1800.5666675889663,99.0,-0.0023863925598561764,409600.0,944.7938878536224,7.773295895852073e-15,0.0,1.8165022134780884,-0.018165025860071182,0.027963202446699142,-0.018165022134780884,-3.725290298461914e-09,0.0,-0.0031984299421310425,0.23649488389492035,0.8959237793696966,-0.06537404656410217,0.742494523525238,-0.06857247650623322,0.7330709099769592,2.274839401245117,0.9975230693817139,,,,,,,
4601784000.0,81.68,-0.4000000059604645,12041169408.0,1802.2084443025233,100.0,-0.003740719286724925,413696.0,947.066654920578,7.112366251504909e-15,0.0,1.8989768028259277,-0.018989767879247665,0.03137842193245888,-0.018989767879247665,-9.313225746154785e-10,0.0,0.015224605798721313,0.2500806152820587,0.889694729767564,-0.14023065567016602,0.7477594614028931,-0.1250060349702835,0.7529773712158203,2.2727670669555664,0.9970865249633789,,,,,,,
4601784000.0,78.68,-0.4099999964237213,12041169408.0,1796.3118638623635,101.0,-0.0016517764888703823,417792.0,949.3468825817108,6.912873051767576e-15,0.0,1.9020650386810303,-0.01902065798640251,0.028182880952954292,-0.019020650535821915,-6.51925802230835e-09,0.0,0.04374697804450989,0.23337793350219727,0.8156588590099779,-0.03074096515774727,0.5744146108627319,0.01300600916147232,0.5435613989830017,2.2802276611328125,0.9972484111785889,,,,,,,
4601784000.0,84.14,-0.36000001430511475,12041169408.0,1804.040176007616,102.0,-0.0016567908460274339,421888.0,951.6173419952393,6.701236787698406e-15,0.0,1.9100933074951172,-0.019100939854979515,0.02548554725944996,-0.019100932404398918,-6.984919309616089e-09,0.0,0.028707746416330338,0.22396251559257507,0.9196508185613336,-0.043240707367658615,0.7221015691757202,-0.014532957226037979,0.7901046872138977,2.2704594135284424,0.9972198009490967,,,,,,,
4601784000.0,89.09,-0.2199999988079071,12041169408.0,1768.802491415374,103.0,-0.0021143737249076366,425984.0,953.933032989502,7.042977312465837e-15,0.0,1.8380324840545654,-0.018380340188741684,0.027668390423059464,-0.01838032528758049,-1.4901161193847656e-08,0.0,0.026541365310549736,0.2337641566991806,0.8997880545274113,0.03995467722415924,0.6559721827507019,0.06649604439735413,0.738444983959198,2.3156909942626953,0.9975085258483887,,,,,,,
4601784000.0,90.02,-0.10000000149011612,12041169408.0,1805.866713197696,104.0,-0.0012118298327550292,430080.0,956.2011959552765,6.826136877968736e-15,0.0,1.8341262340545654,-0.01834125444293022,0.017452655360102654,-0.01834126189351082,7.450580596923828e-09,0.0,-0.012475435622036457,0.18643540143966675,0.924397009243454,0.0768308937549591,0.5807336568832397,0.06435546278953552,0.6780455708503723,2.268162965774536,0.9973747730255127,,,,,,,
4601784000.0,89.64,-0.18000000715255737,12041169408.0,1801.0784100948383,105.0,-0.0021262713707983494,434176.0,958.4753890037537,6.871239688344133e-15,0.0,1.8922791481018066,-0.018922798335552216,0.034236010164022446,-0.01892279088497162,-7.450580596923828e-09,0.0,0.030410490930080414,0.25993022322654724,0.8796528429640741,-0.0011241212487220764,0.6913623213768005,0.029286375269293785,0.7492708563804626,2.274193048477173,0.9972007274627686,,,,,,,
4601784000.0,86.06,-0.20999999344348907,12041169408.0,1785.7474630343302,106.0,-0.00015237188199535012,438272.0,960.769106388092,7.2476746826311e-15,0.0,1.9701669216156006,-0.01970166712999344,0.04184628278017044,-0.019701668992638588,1.862645149230957e-09,0.0,0.043108802288770676,0.28610166907310486,0.8095108076517028,0.03648758679628372,0.6483833193778992,0.07959640026092529,0.6555189490318298,2.293717384338379,0.9969823360443115,,,,,,,
4601784000.0,90.13,-0.05999999865889549,12041169408.0,1740.0759647189316,107.0,-4.3655745685100555e-11,442368.0,963.1230266094208,6.9024647109117154e-15,0.0,1.8545899391174316,-0.01854589954018593,0.024841438978910446,-0.01854589954018593,0.0,0.0,0.00901697389781475,0.2227412909269333,0.8768901136219505,0.12611007690429688,0.5718500018119812,0.13512705266475677,0.6348254084587097,2.3539202213287354,0.9973635673522949,,,,,,,
4601784000.0,90.51,-0.12999999523162842,12041169408.0,1723.098490070795,108.0,-0.0007661978015676141,446464.0,965.5001397132874,7.89993070959838e-15,0.0,1.8700774908065796,-0.018700771033763885,0.026043478399515152,-0.018700774759054184,3.725290298461914e-09,0.0,0.0043146852403879166,0.22821272909641266,0.8820306881978752,0.16365951299667358,0.556119441986084,0.16797418892383575,0.6644393801689148,2.377113103866577,0.9970731735229492,,,,,,,
4601784000.0,88.94,-0.10000000149011612,12041169408.0,1767.6779360937373,109.0,-0.0006149779073894024,450560.0,967.8173038959503,7.587680483922554e-15,0.0,1.8579163551330566,-0.01857917010784149,0.02482457086443901,-0.018579162657260895,-7.450580596923828e-09,0.0,0.011465023271739483,0.22255289554595947,0.8676012662211988,0.1502038538455963,0.5753692984580994,0.16166888177394867,0.6116335988044739,2.317164182662964,0.9974348545074463,,,,,,,
4601784000.0,90.58,-0.1899999976158142,12041169408.0,1788.4217634472539,110.0,-0.002003626199439168,454656.0,970.1075913906097,7.792377854087817e-15,0.0,1.8530436754226685,-0.01853044517338276,0.03367180377244949,-0.018530435860157013,-9.313225746154785e-09,0.0,0.008490324020385742,0.2593992352485657,0.8907344588045442,0.11439643800258636,0.7096313834190369,0.12288675457239151,0.7847422957420349,2.290287494659424,0.9986028671264648,,,,,,,
4601784000.0,90.65,-0.1899999976158142,12041169408.0,1759.0887302170127,111.0,-0.002627686830237508,458752.0,972.436069726944,8.831477216197925e-15,0.0,1.770164966583252,-0.017701663076877594,0.018779443576931953,-0.01770165003836155,-1.210719347000122e-08,0.0,-0.038927674293518066,0.18987448513507843,0.9271779755512178,0.1909046471118927,0.6288472414016724,0.15197697281837463,0.7036152482032776,2.3284783363342285,0.9972648620605469,,,,,,,
4601784000.0,89.8,-0.3700000047683716,12041169408.0,1816.008520717665,112.0,-0.0024796086363494396,462848.0,974.6915657520294,8.309325449928906e-15,0.0,1.8028061389923096,-0.01802806183695793,0.02233618125319481,-0.01802806183695793,0.0,0.0,-0.021470747888088226,0.21029067039489746,0.927043300812554,0.2333008050918579,0.6803315281867981,0.21183006465435028,0.7785516977310181,2.255496025085449,0.9973945617675781,,,,,,,
4601784000.0,87.29,-0.28999999165534973,12041169408.0,1765.122212423904,113.0,-0.00046611379366368055,466944.0,977.0120849609375,8.906070325664928e-15,0.0,1.8803350925445557,-0.01880335435271263,0.037788793444633484,-0.018803350627422333,-4.6566128730773926e-09,0.0,-0.007007705047726631,0.2748580276966095,0.9089230776847155,0.2363450527191162,0.8228570818901062,0.22933731973171234,0.9107605218887329,2.320519208908081,0.9973604679107666,,,,,,,
4601784000.0,86.8,-0.33000001311302185,12041169408.0,1763.700989835954,114.0,-0.003113707760348916,471040.0,979.3344740867615,8.11156697366755e-15,0.0,1.8074043989181519,-0.018074046820402145,0.03546316921710968,-0.018074043095111847,-3.725290298461914e-09,0.0,-0.014554519206285477,0.26595446467399597,0.920771631849856,0.26520127058029175,0.8566473126411438,0.25064677000045776,0.9448589086532593,2.3223891258239746,0.9973981380462646,,,,,,,
4601784000.0,90.23,-0.25999999046325684,12041169408.0,1800.9447362586504,115.0,0.00015614787116646767,475136.0,981.6088359355927,9.063930161978817e-15,0.0,1.8541882038116455,-0.018541879951953888,0.03028019145131111,-0.018541881814599037,1.862645149230957e-09,0.0,-0.009338433854281902,0.24594296514987946,0.8953722562780655,0.22506166994571686,0.7541670799255371,0.21572324633598328,0.7603455781936646,2.2743618488311768,0.9976003170013428,,,,,,,
4601784000.0,94.78,-0.20000000298023224,12041169408.0,1805.6994935804687,116.0,-0.0007828412344679236,479232.0,983.8772089481354,8.583411759133242e-15,0.0,1.791168451309204,-0.01791168376803398,0.03134642541408539,-0.01791168376803398,0.0,0.0,-0.014789266511797905,0.24997876584529877,0.9331055520593547,0.4560405910015106,0.8723517656326294,0.44125133752822876,0.9665138721466064,2.2683730125427246,0.9971115589141846,,,,,,,
4601784000.0,96.53,-0.10999999940395355,12041169408.0,1786.947361413792,117.0,-0.0010973361786454916,483328.0,986.1693861484528,9.837616832264473e-15,0.0,1.7332834005355835,-0.017332827672362328,0.06961801648139954,-0.017332833260297775,5.587935447692871e-09,0.0,-0.036125391721725464,0.3714359402656555,0.8546558261695831,0.3816593885421753,0.9065202474594116,0.3455340266227722,0.97428297996521,2.292177200317383,0.9973418712615967,,,,,,,
4601784000.0,97.37,-0.12999999523162842,12041169408.0,1766.5993150519419,118.0,-0.001256556250154972,487424.0,988.4879651069641,1.0434361708000495e-14,0.0,1.840981125831604,-0.018409807235002518,0.029574280604720116,-0.018409810960292816,4.6566128730773926e-09,0.0,0.01310264877974987,0.24288120865821838,0.9313007820844751,0.19949157536029816,0.8991986513137817,0.21259424090385437,0.9266548752784729,2.3185789585113525,0.9974665641784668,,,,,,,
4601784000.0,89.86,-0.3100000023841858,12041169408.0,1752.4282673524106,119.0,-0.0012601809576153755,491520.0,990.825293302536,9.579143034343929e-15,0.0,1.879151701927185,-0.01879151724278927,0.04353376477956772,-0.01879151724278927,0.0,0.0,0.036248818039894104,0.292872816324234,0.9038363453279803,0.0921059176325798,0.9701358675956726,0.1283547431230545,0.9444382190704346,2.3373281955718994,0.9974684715270996,,,,,,,
4601784000.0,90.66,-0.2199999988079071,12041169408.0,1804.5648889921545,120.0,-0.0026851389557123184,495616.0,993.0950925350189,1.1142128886199032e-14,0.0,1.776269793510437,-0.017762701958417892,0.04382907599210739,-0.017762698233127594,-3.725290298461914e-09,0.0,0.0028568124398589134,0.29609355330467224,0.873131519310113,0.0919734388589859,0.8494743704795837,0.09483024477958679,0.8312891721725464,2.26979923248291,0.9978902339935303,,,,,,,
4601784000.0,93.79,-0.15000000596046448,12041169408.0,1797.8717540475968,121.0,0.001108723459765315,499712.0,995.3733417987823,1.0944370409937676e-14,0.0,1.8370463848114014,-0.01837046630680561,0.034760765731334686,-0.018370462581515312,-3.725290298461914e-09,0.0,0.005787554197013378,0.2636380195617676,0.8678471310419538,0.23144371807575226,0.7576789259910583,0.2372312843799591,0.7252198457717896,2.2782492637634277,0.9973466396331787,,,,,,,
4601784000.0,92.28,0.1599999964237213,12041169408.0,1842.787489801842,122.0,0.00238212151452899,503808.0,997.5960614681244,1.0125580929276623e-14,0.0,1.8349498510360718,-0.01834951899945736,0.054369017481803894,-0.018349498510360718,-2.0489096641540527e-08,0.0,0.06680551171302795,0.3229559361934662,0.8613986506090521,0.18210172653198242,0.9429407119750977,0.24890723824501038,0.8674800395965576,2.222719669342041,0.9974102973937988,,,,,,,
4601784000.0,90.24,0.18000000715255737,12041169408.0,1733.331582903974,123.0,0.0015921229496598244,507904.0,999.9591407775879,1.0035375308525829e-14,0.0,1.8355991840362549,-0.01835598796606064,0.040088169276714325,-0.018355991691350937,3.725290298461914e-09,0.0,0.054744064807891846,0.2778457701206207,0.902419389312828,0.3431868553161621,0.873059868812561,0.39793092012405396,0.8894510269165039,2.363079309463501,0.9973933696746826,,,,,,,
4601784000.0,96.61,0.3400000035762787,12041169408.0,1787.6211995591473,124.0,0.0022350759245455265,512000.0,1002.2504539489746,1.021405182655144e-14,0.0,1.9296647310256958,-0.019296646118164062,0.02847406268119812,-0.019296646118164062,0.0,0.0,0.001325351418927312,0.23866350948810577,0.8458406451886986,0.23760494589805603,0.6100146174430847,0.23893028497695923,0.6078565716743469,2.2913131713867188,0.9972031116485596,,,,,,,
4601784000.0,93.65,0.20999999344348907,12041169408.0,1774.6009476730446,125.0,-0.00016021421470213681,516096.0,1004.5585784912109,8.753414659778969e-15,0.0,1.9487195014953613,-0.01948719471693039,0.025186114013195038,-0.01948719471693039,0.0,0.0,0.0009403612930327654,0.22446303069591522,0.7424435990190196,0.12155674397945404,0.41770654916763306,0.12249711155891418,0.4422915279865265,2.308124542236328,0.9973220825195312,,,,,,,
4601784000.0,88.75,0.03999999910593033,12041169408.0,1726.0444390503749,126.0,-5.820766091346741e-11,520192.0,1006.931634426117,7.913808497406194e-15,0.0,1.8856492042541504,-0.018856480717658997,0.023314109072089195,-0.018856491893529892,1.1175870895385742e-08,0.0,-0.01458803005516529,0.2154686599969864,0.7729183426502181,0.174973726272583,0.4011031985282898,0.16038569808006287,0.4521610140800476,2.373055934906006,0.9977109432220459,,,,,,,
4601784000.0,88.33,0.07000000029802322,12041169408.0,1801.3781155008824,127.0,0.0011283429339528084,524288.0,1009.2054491043091,7.792377854087817e-15,0.0,1.8654015064239502,-0.01865401305258274,0.025087788701057434,-0.01865401491522789,1.862645149230957e-09,0.0,-0.016496801748871803,0.22341804206371307,0.6805955816507943,0.1858886182308197,0.33336174488067627,0.16939181089401245,0.3953190743923187,2.2738146781921387,0.9976019859313965,,,,,,,
,,,,,,,,,,,,,,,,,,,,,,,,,,0.004815448075532913,0.06053007394075394,0.06172158941626549,0.004815448075532913,0.06053007394075394,0.06172158941626549,
,,,,,,,,,,,,,,,,,,,,,,,,,,0.0032575291115790606,0.04776955395936966,0.04941538721323013,0.0032575291115790606,0.04776955395936966,0.04941538721323013,
,,,,,,,,,,,,,,,,,,,,,,,,,,0.0025672672782093287,0.04464117810130119,0.044092755764722824,0.0025672672782093287,0.04464117810130119,0.044092755764722824,
,,,,,,,,,,,,,,,,,,,,,,,,,,0.0023409337736666203,0.042527467012405396,0.041997287422418594,0.0023409337736666203,0.042527467012405396,0.041997287422418594,
,,,,,,,,,,,,,,,,,,,,,,,,,,0.001840853481553495,0.041986510157585144,0.041423600167036057,0.001840853481553495,0.041986510157585144,0.041423600167036057,
,,,,,,,,,,,,,,,,,,,,,,,,,,0.0019351309165358543,0.04091149568557739,0.04007536917924881,0.0019351309165358543,0.04091149568557739,0.04007536917924881,
,,,,,,,,,,,,,,,,,,,,,,,,,,,,,,,,-2.23
4602052000.0,85.21,-0.029999999329447746,11990521856.0,17.043920330577905,128.0,-0.001939718029461801,528384.0,1249.52574634552,7.684824998577255e-15,0.0,1.9253802299499512,-0.01925380527973175,0.044154781848192215,-0.019253801554441452,-3.725290298461914e-09,0.0,-0.015263273380696774,0.2968132197856903,0.8103055465446296,0.10637854039669037,0.6229797005653381,0.09111528098583221,0.6814844608306885,240.32029724121094,0.9976835250854492,,,,,,,
4602052000.0,84.46,-0.029999999329447746,12041169408.0,1823.877604353559,129.0,0.0011344356462359428,532480.0,1251.7715110778809,7.08461067588928e-15,0.0,1.8654097318649292,-0.01865409128367901,0.030538056045770645,-0.018654096871614456,5.587935447692871e-09,0.0,0.029455896466970444,0.24540407955646515,0.8736899868691881,0.1311628222465515,0.710018515586853,0.16061870753765106,0.6904987692832947,2.24576473236084,0.997359037399292,,,,,,,
4602052000.0,89.89,0.05000000074505806,12041169408.0,1815.3225147881758,130.0,0.0003250292793381959,536576.0,1254.0278594493866,7.173081573164097e-15,0.0,1.7937963008880615,-0.017937958240509033,0.018351294100284576,-0.01793796196579933,3.725290298461914e-09,0.0,0.0021747834980487823,0.19159024953842163,0.9221100506557562,0.3055918216705322,0.6232870221138,0.3077666163444519,0.68648761510849,2.2563483715057373,0.9970569610595703,,,,,,,
4602052000.0,94.34,0.27000001072883606,12041169408.0,1819.4817978947017,131.0,0.003257962642237544,540672.0,1256.279049873352,8.007483565108942e-15,0.0,1.9383026361465454,-0.019383028149604797,0.020261641591787338,-0.019383026286959648,-2.7939677238464355e-09,0.0,0.0062992386519908905,0.20122992992401123,0.9190045153743509,0.31284934282302856,0.6615756750106812,0.31914854049682617,0.7070696353912354,2.251190423965454,0.9974896907806396,,,,,,,
4602052000.0,91.73,0.17000000178813934,12041169408.0,1725.752806027122,132.0,-5.820766091346741e-11,544768.0,1258.652506828308,7.438494264988549e-15,0.0,1.8841804265975952,-0.01884179748594761,0.02345302142202854,-0.018841803073883057,5.587935447692871e-09,0.0,0.011845577508211136,0.2162802517414093,0.8712003870569734,0.11800330132246017,0.5873615145683289,0.12984886765480042,0.6026421785354614,2.3734569549560547,0.9973092079162598,,,,,,,
4602052000.0,90.11,0.18000000715255737,12041169408.0,1765.6156361151516,133.0,0.003440284635871649,548864.0,1260.972377538681,7.797582024515748e-15,0.0,1.8193039894104004,-0.018193040043115616,0.02332260273396969,-0.018193040043115616,9.313225746154785e-10,0.0,0.05919743329286575,0.20772916078567505,0.9090736794386037,0.31386858224868774,0.7065865993499756,0.3730659782886505,0.6888943910598755,2.319870710372925,0.9972620010375977,,,,,,,
4602052000.0,93.34,0.27000001072883606,12041169408.0,1816.0670711023156,134.0,0.001807076158002019,552960.0,1263.2278008460999,7.98146271296929e-15,0.0,1.9120789766311646,-0.019120793789625168,0.015183083713054657,-0.01912079006433487,-3.026798367500305e-09,0.0,-0.0007940070936456323,0.1742783784866333,0.8733856361241974,0.20257744193077087,0.4718055725097656,0.2017834335565567,0.48978111147880554,2.2554233074188232,0.99713134765625,,,,,,,
4602052000.0,90.26,0.28999999165534973,12041169408.0,1784.5725317917058,135.0,0.0014829069841653109,557056.0,1265.5230283737183,8.094219738907782e-15,0.0,1.8389003276824951,-0.01838899590075016,0.011247673071920872,-0.018389003351330757,7.450580596923828e-09,0.0,0.0046757906675338745,0.14992989599704742,0.9211503720254036,0.16079357266426086,0.5308089256286621,0.16546937823295593,0.533935010433197,2.295227527618408,0.9974191188812256,,,,,,,
4602052000.0,88.55,0.07000000029802322,12041169408.0,1759.1207916963951,136.0,-0.0013215752551332116,561152.0,1267.8514642715454,8.042178034628478e-15,0.0,1.9072166681289673,-0.0190721582621336,0.02238142117857933,-0.019072165712714195,7.450580596923828e-09,0.0,-0.011639726348221302,0.21127767860889435,0.8829443096714238,0.16327258944511414,0.530556321144104,0.15163284540176392,0.617529034614563,2.3284358978271484,0.997279167175293,,,,,,,
4602052000.0,88.69,0.14000000059604645,12041169408.0,1803.0503251130194,137.0,0.002979935146868229,565248.0,1270.1231701374054,9.076073226310655e-15,0.0,1.8490028381347656,-0.01849002204835415,0.025453325361013412,-0.018490027636289597,5.587935447692871e-09,0.0,0.009694838896393776,0.22544416785240173,0.8949717696244427,0.33150678873062134,0.6402658224105835,0.34120163321495056,0.695642352104187,2.2717058658599854,0.9972221851348877,,,,,,,
4602052000.0,89.9,0.3199999928474426,12041169408.0,1739.9295175314933,138.0,0.004149692598730326,569344.0,1272.4772884845734,9.221789998292707e-15,0.0,1.8647067546844482,-0.01864706166088581,0.011875300668179989,-0.01864706724882126,5.587935447692871e-09,0.0,0.025558337569236755,0.15199676156044006,0.9569136107519062,0.43883657455444336,0.6926566958427429,0.4643949270248413,0.7322582006454468,2.3541183471679688,0.9971714019775391,,,,,,,
4602052000.0,93.76,0.5600000023841858,12041169408.0,1733.4345941290403,139.0,0.004824222065508366,573440.0,1274.8402273654938,9.370976217226712e-15,0.0,1.691815733909607,-0.016918156296014786,0.01934756338596344,-0.016918156296014786,0.0,0.0,0.01404622569680214,0.19623258709907532,0.9382661304657811,0.47468897700309753,0.7593637108802795,0.4887351989746094,0.7897859811782837,2.36293888092041,0.997478723526001,,,,,,,
4602052000.0,98.25,0.6399999856948853,12041169408.0,1732.8107679577247,140.0,0.0025007124058902264,577536.0,1277.2040169239044,9.239137233052475e-15,0.0,1.7765684127807617,-0.01776568405330181,0.03565056622028351,-0.01776568405330181,0.0,0.0,-0.007942568510770798,0.26693716645240784,0.8795629638269508,0.4125022888183594,0.7104620337486267,0.4045597016811371,0.7691817879676819,2.3637895584106445,0.9972653388977051,,,,,,,
4602052000.0,97.17,0.3100000023841858,12041169408.0,1793.8336117903589,141.0,0.0008353908197022974,581632.0,1279.487394809723,8.213915658750182e-15,0.0,1.9086198806762695,-0.01908620446920395,0.029884934425354004,-0.0190861988812685,-5.587935447692871e-09,0.0,-0.014423436485230923,0.2440827190876007,0.8525674055064038,0.25138533115386963,0.5653707981109619,0.23696191608905792,0.6356825828552246,2.2833778858184814,0.997169017791748,,,,,,,
4602052000.0,89.72,0.17000000178813934,12041169408.0,1792.2986680866065,142.0,0.0005024793790653348,585728.0,1281.7727282047272,9.147196888825704e-15,0.0,1.794793725013733,-0.017947936430573463,0.03775108978152275,-0.017947936430573463,0.0,0.0,-0.03497777879238129,0.2725745439529419,0.8386359978670163,0.26353392004966736,0.6142119765281677,0.22855615615844727,0.6785502433776855,2.2853333950042725,0.9972448348999023,,,,,,,
4602052000.0,87.97,0.09000000357627869,12041169408.0,1812.5534508463518,143.0,-0.0011744322255253792,589824.0,1284.0325236320496,7.830541770559307e-15,0.0,1.829878568649292,-0.01829877868294716,0.0592680349946022,-0.018298786133527756,7.450580596923828e-09,0.0,-0.05374950170516968,0.340110719203949,0.693299953224257,0.17823144793510437,0.5081497430801392,0.1244819313287735,0.6141344308853149,2.2597954273223877,0.9973709583282471,,,,,,,
4602052000.0,95.58,-0.2800000011920929,12041169408.0,1783.4732007753496,144.0,-0.0035290501546114683,593920.0,1286.3291659355164,8.212180935274205e-15,0.0,1.8617955446243286,-0.018617961555719376,0.08824214339256287,-0.01861795410513878,-7.450580596923828e-09,0.0,-0.08742651343345642,0.41095271706581116,0.7874055060803757,0.3585960268974304,0.6984242796897888,0.2711695432662964,0.891283392906189,2.296642303466797,0.9973046779632568,,,,,,,
4602052000.0,102.74,-0.10999999940395355,12041169408.0,1794.9933913858258,145.0,0.002525645773857832,598016.0,1288.6110684871674,8.599024270417033e-15,0.0,1.8134429454803467,-0.018134430050849915,0.03070494346320629,-0.018134428188204765,-2.3283064365386963e-09,0.0,-0.014548909850418568,0.24741294980049133,0.866187076399597,0.32033395767211914,0.6600723266601562,0.30578505992889404,0.6763529181480408,2.281902551651001,0.9976348876953125,,,,,,,
4602052000.0,99.2,0.019999999552965164,12041169408.0,1785.7198063716173,146.0,-0.0021938167046755552,602112.0,1290.904821395874,8.831477216197925e-15,0.0,1.83456289768219,-0.01834562048316002,0.054870788007974625,-0.018345627933740616,6.51925802230835e-09,0.0,-0.05661279708147049,0.32643923163414,0.7713820065826238,0.16897176206111908,0.5693740248680115,0.11235897243022919,0.6827271580696106,2.293752908706665,0.9975841045379639,,,,,,,
4602052000.0,95.57,0.05000000074505806,12041169408.0,1760.9009551269205,147.0,0.0032135439105331898,606208.0,1293.2309033870697,8.314529620356836e-15,0.0,1.737088918685913,-0.017370885238051414,0.02452242001891136,-0.017370888963341713,3.725290298461914e-09,0.0,-0.024386867880821228,0.2201407551765442,0.9300657560324542,0.49676620960235596,0.7972836494445801,0.47237932682037354,0.832444965839386,2.3260819911956787,0.9971466064453125,,,,,,,
4602052000.0,96.25,0.23000000417232513,12041169408.0,1793.9660447049719,148.0,0.0018648297991603613,610304.0,1295.5141127109528,8.359632430732233e-15,0.0,1.849757432937622,-0.018497565761208534,0.02787376567721367,-0.01849757321178913,7.450580596923828e-09,0.0,-0.021966202184557915,0.23511382937431335,0.9087559326667747,0.31929469108581543,0.7460761666297913,0.29732847213745117,0.7783517241477966,2.2832093238830566,0.9973061084747314,,,,,,,
4602052000.0,99.03,0.15000000596046448,12041169408.0,1815.0946644579676,149.0,-0.0018679073546081781,614400.0,1297.7707443237305,8.531370054853937e-15,0.0,1.875407099723816,-0.01875406876206398,0.05080926790833473,-0.01875407062470913,1.862645149230957e-09,0.0,-0.03870321437716484,0.31645703315734863,0.6858129538042497,0.1281452775001526,0.4563174545764923,0.08944205939769745,0.5645736455917358,2.25663161277771,0.9970381259918213,,,,,,,
4602052000.0,98.57,0.0,12041169408.0,1772.7159788139222,150.0,0.000340594066074118,618496.0,1300.08132314682,7.891257092218495e-15,0.0,1.844039797782898,-0.018440401181578636,0.016027452424168587,-0.018440397456288338,-3.725290298461914e-09,0.0,-0.0024232957512140274,0.17904430627822876,0.8181451947190055,0.10809903591871262,0.4046483039855957,0.10567574203014374,0.4198538362979889,2.3105788230895996,0.9972507953643799,,,,,,,
4602052000.0,97.72,-0.18000000715255737,12041169408.0,1817.9807692572244,151.0,-0.0008530757622793317,622592.0,1302.3343722820282,7.030834248133999e-15,0.0,1.8198390007019043,-0.018198397010564804,0.053163181990385056,-0.018198389559984207,-7.450580596923828e-09,0.0,-0.05226985737681389,0.3218998908996582,0.7987357270244063,0.24921128153800964,0.6276710629463196,0.19694142043590546,0.7175257205963135,2.25304913520813,0.997546911239624,,,,,,,
4602052000.0,95.12,-0.019999999552965164,12041169408.0,1780.6903683403693,152.0,0.00136851635761559,626688.0,1304.6346037387848,8.07340305719606e-15,0.0,1.7959321737289429,-0.017959335818886757,0.012144742533564568,-0.017959320917725563,-1.4901161193847656e-08,0.0,-0.012442224659025669,0.15537235140800476,0.9141301648730802,0.1937309205532074,0.51556795835495,0.1812886893749237,0.5302167534828186,2.300231456756592,0.9970264434814453,,,,,,,
4602052000.0,97.32,0.07000000029802322,12041169408.0,1760.5683772867324,153.0,0.003086268901824951,630784.0,1306.9611251354218,7.66053886991358e-15,0.0,1.7827582359313965,-0.017827574163675308,0.02107486128807068,-0.017827581614255905,7.450580596923828e-09,0.0,0.03050517849624157,0.20304980874061584,0.9020524315730204,0.2403484582901001,0.6286429762840271,0.2708536386489868,0.6487923860549927,2.326521396636963,0.9972646236419678,,,,,,,
4602052000.0,95.61,0.25999999046325684,12041169408.0,1758.2118157850757,154.0,0.0012025602627545595,634880.0,1309.2907648086548,7.539108226595204e-15,0.0,1.827108383178711,-0.018271083012223244,0.04084017872810364,-0.018271083012223244,0.0,0.0,-0.01772139221429825,0.2852826416492462,0.8474658332471164,0.2854374647140503,0.657194972038269,0.26771605014801025,0.7304521203041077,2.3296396732330322,0.9991340637207031,,,,,,,
4602052000.0,93.71,0.25999999046325684,12041169408.0,1764.0521411782295,155.0,0.002410750836133957,638976.0,1311.6126916408539,7.603292995206345e-15,0.0,1.8831167221069336,-0.018831167370080948,0.014544503763318062,-0.018831167370080948,0.0,0.0,0.03109915927052498,0.16771617531776428,0.8767543083645982,0.12700292468070984,0.48323556780815125,0.15810208022594452,0.4777371883392334,2.3219268321990967,0.9975168704986572,,,,,,,
4602052000.0,96.62,0.28999999165534973,12041169408.0,1804.8773224577615,156.0,0.0034514504950493574,643072.0,1313.8820979595184,7.835745940987238e-15,0.0,1.9022020101547241,-0.019022010266780853,0.01579422876238823,-0.0190220195800066,8.381903171539307e-09,0.0,0.0039267390966415405,0.17770974338054657,0.9339442551923842,0.3437698781490326,0.6786627769470215,0.3476966321468353,0.6914423108100891,2.269406318664551,0.996955156326294,,,,,,,
4602052000.0,90.0,0.4099999964237213,12041169408.0,1801.0051513542498,157.0,0.0039781262166798115,647168.0,1316.1563835144043,8.163608677946854e-15,0.0,1.8788437843322754,-0.018788427114486694,0.012540418654680252,-0.01878843829035759,1.1175870895385742e-08,0.0,0.046496517956256866,0.15140840411186218,0.9030138319488862,0.14512307941913605,0.49142682552337646,0.1916196048259735,0.48617780208587646,2.2742855548858643,0.9974639415740967,,,,,,,
4602052000.0,90.9,0.5400000214576721,12041169408.0,1801.6495794248792,158.0,0.0036390884779393673,651264.0,1318.4298555850983,7.082875952413303e-15,0.0,1.8470396995544434,-0.01847039721906185,0.025041330605745316,-0.01847039721906185,0.0,0.0,0.006237213034182787,0.22373193502426147,0.8521978420154609,0.2281104177236557,0.5497723817825317,0.2343476116657257,0.5819525718688965,2.2734720706939697,0.9973282814025879,,,,,,,
4602052000.0,89.64,0.3799999952316284,12041169408.0,1796.006706954812,159.0,0.0022589261643588543,655360.0,1320.7104706764221,6.62837840170738e-15,0.0,1.9316176176071167,-0.01931617222726345,0.007863357663154602,-0.01931617595255375,3.725290298461914e-09,0.0,0.014609831385314465,0.12456748634576797,0.9284327181731153,0.1541500687599182,0.48944759368896484,0.16875989735126495,0.4656369090080261,2.2806150913238525,0.9975404739379883,,,,,,,
,,,,,,,,,,,,,,,,,,,,,,,,,,0.0046240659430623055,0.03921926021575928,0.032649166882038116,0.0046240659430623055,0.03921926021575928,0.032649166882038116,
,,,,,,,,,,,,,,,,,,,,,,,,,,0.0014693312114104629,0.030105674639344215,0.027855893597006798,0.0014693312114104629,0.030105674639344215,0.027855893597006798,
,,,,,,,,,,,,,,,,,,,,,,,,,,0.0012505140621215105,0.02752046100795269,0.026186442002654076,0.0012505140621215105,0.02752046100795269,0.026186442002654076,
,,,,,,,,,,,,,,,,,,,,,,,,,,0.0011411575833335519,0.02550126425921917,0.024947410449385643,0.0011411575833335519,0.02550126425921917,0.024947410449385643,
,,,,,,,,,,,,,,,,,,,,,,,,,,0.0012024110183119774,0.024059994146227837,0.023338260129094124,0.0012024110183119774,0.024059994146227837,0.023338260129094124,
,,,,,,,,,,,,,,,,,,,,,,,,,,0.001235341769643128,0.023684684187173843,0.023333199322223663,0.001235341769643128,0.023684684187173843,0.023333199322223663,
,,,,,,,,,,,,,,,,,,,,,,,,,,,,,,,,-1.58
4602184000.0,86.78,0.2800000011920929,11990521856.0,17.03359867427067,160.0,0.003831446636468172,659456.0,1561.1763920783997,6.918077222195507e-15,0.0,1.9205089807510376,-0.01920509897172451,0.007366590201854706,-0.019205089658498764,-9.313225746154785e-09,0.0,0.018018633127212524,0.1200500950217247,0.964161838554962,0.31333982944488525,0.617952287197113,0.3313584625720978,0.6341466307640076,240.46592140197754,0.997523307800293,,,,,,,
4602184000.0,88.74,0.38999998569488525,12041169408.0,1811.532844089207,161.0,0.002618656726554036,663552.0,1563.4374606609344,6.3074545586516706e-15,0.0,2.0205605030059814,-0.02020559273660183,0.011122146621346474,-0.020205603912472725,1.1175870895385742e-08,0.0,0.023483389988541603,0.14730282127857208,0.940725903497586,0.23621582984924316,0.5980835556983948,0.2596992254257202,0.6050323843955994,2.26106858253479,0.997234582901001,,,,,,,
4602184000.0,88.11,0.4300000071525574,12041169408.0,1821.8081195149161,162.0,0.003324205754324794,667648.0,1565.6857764720917,6.765421556309548e-15,0.0,1.9421409368515015,-0.019421406090259552,0.011716233566403389,-0.01942140981554985,3.725290298461914e-09,0.0,0.02218194305896759,0.15147946774959564,0.9347522521447911,0.22389674186706543,0.575997531414032,0.24607868492603302,0.5930222868919373,2.2483158111572266,0.9971282482147217,,,,,,,
4602184000.0,89.32,0.38999998569488525,12041169408.0,1818.3113372786827,163.0,0.002980287652462721,671744.0,1567.938416004181,6.689093723366568e-15,0.0,1.9183316230773926,-0.019183315336704254,0.028223156929016113,-0.019183315336704254,0.0,0.0,-0.0029388368129730225,0.23759515583515167,0.8722855882294724,0.32015788555145264,0.6349313855171204,0.3172190189361572,0.6648407578468323,2.2526395320892334,0.9972145557403564,,,,,,,
4602184000.0,90.65,0.47999998927116394,12041169408.0,1738.825701132654,164.0,0.0056204842403531075,675840.0,1570.2940287590027,6.453171330633722e-15,0.0,1.8688507080078125,-0.018688518553972244,0.009844506159424782,-0.01868850737810135,-1.1175870895385742e-08,0.0,0.03485793620347977,0.1359354555606842,0.9616728819806448,0.35755035281181335,0.6791779398918152,0.3924083113670349,0.6943519711494446,2.3556127548217773,0.9972975254058838,,,,,,,
4602184000.0,90.76,0.3799999952316284,12041169408.0,1817.1496853017597,165.0,0.0012323997216299176,679936.0,1572.5481083393097,6.617970060851519e-15,0.0,2.0280609130859375,-0.020280616357922554,0.024286020547151566,-0.020280608907341957,-7.450580596923828e-09,0.0,-0.009611167013645172,0.22020787000656128,0.8587802754517141,0.16950085759162903,0.5446746945381165,0.15988969802856445,0.585983157157898,2.254079580307007,0.9973008632659912,,,,,,,
4602184000.0,87.25,0.20999999344348907,12041169408.0,1804.2345627811721,166.0,0.0019412939436733723,684032.0,1574.818323135376,5.924080670460796e-15,0.0,2.003385543823242,-0.020033858716487885,0.008232178166508675,-0.020033854991197586,-3.725290298461914e-09,0.0,0.00927094928920269,0.12799376249313354,0.8765926992017464,0.11687177419662476,0.3607032299041748,0.1261427253484726,0.36434969305992126,2.270214796066284,0.9971964359283447,,,,,,,
4602184000.0,84.31,0.23000000417232513,12041169408.0,1781.2667769028283,167.0,0.0026529752649366856,688128.0,1577.1178102493286,6.670011765130823e-15,0.0,1.8779926300048828,-0.018779926002025604,0.01632837951183319,-0.018779926002025604,0.0,0.0,0.002393614500761032,0.18071803450584412,0.9328719510998463,0.34609150886535645,0.6761416792869568,0.3484851121902466,0.6975084543228149,2.2994871139526367,0.9973270893096924,,,,,,,
4602184000.0,88.17,0.3799999952316284,12041169408.0,1796.6806317294333,168.0,0.004252952989190817,692224.0,1579.3975698947906,6.692563170318522e-15,0.0,1.8736357688903809,-0.018736356869339943,0.011365629732608795,-0.018736356869339943,0.0,0.0,0.008990082889795303,0.150518998503685,0.9463503297161233,0.31482967734336853,0.6157814264297485,0.32381975650787354,0.6498420238494873,2.279759645462036,0.9970169067382812,,,,,,,
4602184000.0,93.33,0.5199999809265137,12041169408.0,1777.1836621579166,169.0,0.0035521206445991993,696320.0,1581.7023401260376,7.115835698456863e-15,0.0,1.8468961715698242,-0.01846896857023239,0.006796777714043856,-0.018468961119651794,-7.450580596923828e-09,0.0,0.01127032283693552,0.1160595715045929,0.9627578409066861,0.2914573848247528,0.5986619591712952,0.30272772908210754,0.6014001369476318,2.3047702312469482,0.9973874092102051,,,,,,,
4602184000.0,87.45,0.27000001072883606,12041169408.0,1769.6489892013508,170.0,0.001424345187842846,700416.0,1584.0169234275818,6.498274141009119e-15,0.0,1.9510011672973633,-0.01951001212000847,0.019922373816370964,-0.01951001212000847,4.656612873077393e-10,0.0,-0.010834764689207077,0.1993415504693985,0.792060160007326,0.1276165395975113,0.38920941948890686,0.11678177863359451,0.4371485114097595,2.3145833015441895,0.9969329833984375,,,,,,,
4602184000.0,89.23,0.11999999731779099,12041169408.0,1801.2982220799533,171.0,0.0007133483304642141,704512.0,1586.2908389568329,7.159203785356283e-15,0.0,1.9502735137939453,-0.019502727314829826,0.02495601214468479,-0.019502734765410423,7.450580596923828e-09,0.0,-0.025521833449602127,0.22197452187538147,0.9079909501348616,0.3128255605697632,0.673324704170227,0.28730371594429016,0.7317922711372375,2.2739155292510986,0.9971327781677246,,,,,,,
4602184000.0,92.87,0.20999999344348907,12041169408.0,1667.1558370743542,172.0,0.002502408577129245,708608.0,1588.7477178573608,6.751543768501733e-15,0.0,1.9284603595733643,-0.019284605979919434,0.010387311689555645,-0.019284602254629135,-3.725290298461914e-09,0.0,-0.00799146294593811,0.14392989873886108,0.8664657951700251,0.12486522644758224,0.35327598452568054,0.11687375605106354,0.3938716948032379,2.456878900527954,0.9976315498352051,,,,,,,
4602184000.0,89.92,0.30000001192092896,12041169408.0,1793.6940819964573,173.0,0.0008953523356467485,712704.0,1591.0312733650208,6.7914424084492e-15,0.0,1.9352898597717285,-0.019352886825799942,0.03752177953720093,-0.019352898001670837,1.1175870895385742e-08,0.0,-0.024464411661028862,0.2728794813156128,0.748922708820746,0.14951197803020477,0.4754330813884735,0.12504756450653076,0.5445869565010071,2.283555507659912,0.9970300197601318,,,,,,,
4602184000.0,89.58,0.20000000298023224,12041169408.0,1791.3106366917013,174.0,0.0034102206118404865,716800.0,1593.3178672790527,7.310124727766265e-15,0.0,1.8665995597839355,-0.018666010349988937,0.006454030051827431,-0.018665995448827744,-1.4901161193847656e-08,0.0,0.01140798069536686,0.11305325478315353,0.950552286725639,0.24325139820575714,0.5171827673912048,0.25465938448905945,0.5084052085876465,2.2865939140319824,0.9970376491546631,,,,,,,
4602184000.0,93.58,0.27000001072883606,12041169408.0,1772.2257090014175,175.0,0.001798545359633863,720896.0,1595.629085302353,7.464515117128201e-15,0.0,1.9259356260299683,-0.01925935596227646,0.02069711685180664,-0.01925935596227646,0.0,0.0,-0.009141083806753159,0.20327509939670563,0.76692770621802,0.12678442895412445,0.3393327593803406,0.11764335632324219,0.42105501890182495,2.311218023300171,0.99711012840271,,,,,,,
4602184000.0,105.48,0.3400000035762787,12041169408.0,1749.5993798346035,176.0,0.002343541942536831,724992.0,1597.9701926708221,7.632783294297951e-15,0.0,1.9160547256469727,-0.019160544499754906,0.015119201503694057,-0.019160546362400055,1.862645149230957e-09,0.0,0.015181886963546276,0.17324906587600708,0.9110851703589273,0.24187420308589935,0.5480989217758179,0.2570560872554779,0.5810102820396423,2.3411073684692383,0.9972708225250244,,,,,,,
4602184000.0,110.96,0.4000000059604645,12041169408.0,1767.6644770302187,177.0,0.002707906300202012,729088.0,1600.28737449646,8.583411759133242e-15,0.0,1.927371859550476,-0.019273722544312477,0.030046233907341957,-0.01927371881902218,-3.725290298461914e-09,0.0,-0.018795209005475044,0.24444589018821716,0.9016512004243549,0.3812974691390991,0.7176670432090759,0.3625022768974304,0.7794679403305054,2.3171818256378174,0.9970481395721436,,,,,,,
4602184000.0,105.34,0.4300000071525574,12041169408.0,1798.789816091711,178.0,0.0032553309574723244,733184.0,1602.564460992813,8.427286646295329e-15,0.0,1.9301950931549072,-0.01930195465683937,0.006067560985684395,-0.019301950931549072,-3.725290298461914e-09,0.0,0.00832887552678585,0.10985762625932693,0.9679869263787992,0.2846076190471649,0.595487117767334,0.2929365038871765,0.6139973998069763,2.2770864963531494,0.9973022937774658,,,,,,,
4602184000.0,96.04,0.33000001311302185,12041169408.0,1804.2222465867594,179.0,0.0010870278347283602,737280.0,1604.834691286087,7.428085924132688e-15,0.0,1.997307300567627,-0.019973065704107285,0.03965722396969795,-0.01997307315468788,7.450580596923828e-09,0.0,-0.03520406037569046,0.2794533669948578,0.7408819179917283,0.18273645639419556,0.45135772228240967,0.1475324034690857,0.5489850640296936,2.270230293273926,0.9973099231719971,,,,,,,
4602184000.0,95.85,0.20000000298023224,12041169408.0,1762.9238472668314,180.0,0.0021781371906399727,741376.0,1607.1581041812897,8.588615929561172e-15,0.0,1.9995450973510742,-0.01999545656144619,0.02608664706349373,-0.019995450973510742,-5.587935447692871e-09,0.0,-0.003512993920594454,0.2284155935049057,0.8863660403350845,0.2965635061264038,0.6346369385719299,0.29305052757263184,0.6775973439216614,2.3234128952026367,0.9971668720245361,,,,,,,
4602184000.0,105.94,0.36000001430511475,12041169408.0,1788.1183506054253,181.0,0.004727759398519993,745472.0,1609.448780298233,9.0951551845464e-15,0.0,1.8270785808563232,-0.018270796164870262,0.00712190568447113,-0.018270784988999367,-1.1175870895385742e-08,0.0,0.01884988695383072,0.11786383390426636,0.9669462029251432,0.32634174823760986,0.6435412168502808,0.3451916575431824,0.6482908725738525,2.2906761169433594,0.9975485801696777,,,,,,,
4602184000.0,106.46,0.4300000071525574,12041169408.0,1797.8567024043116,182.0,0.002186521887779236,749568.0,1611.7270486354828,8.621575675604731e-15,0.0,1.858189344406128,-0.018581897020339966,0.019922595471143723,-0.018581893295049667,-3.725290298461914e-09,0.0,-0.007594323251396418,0.1994924396276474,0.8985183855652858,0.26089826226234436,0.5870553851127625,0.2533039450645447,0.626228392124176,2.278268337249756,0.9972498416900635,,,,,,,
4602184000.0,111.55,0.4099999964237213,12041169408.0,1799.601548004318,183.0,0.001095376443117857,753664.0,1614.0031080245972,8.186160083134553e-15,0.0,1.8284388780593872,-0.018284384161233902,0.024595526978373528,-0.0182843878865242,4.6566128730773926e-09,0.0,0.0022803964093327522,0.2218059003353119,0.7960184713779747,0.1447799801826477,0.43936482071876526,0.147060364484787,0.4911087453365326,2.27605938911438,0.9976413249969482,,,,,,,
4602184000.0,107.97,0.3100000023841858,12041169408.0,1804.9368639203822,184.0,0.0032933256588876247,757760.0,1616.2724394798279,9.037909309839165e-15,0.0,1.9124789237976074,-0.019124779850244522,0.005692800506949425,-0.019124789163470268,8.381903171539307e-09,0.0,0.008063729852437973,0.10641119629144669,0.9438685099993506,0.16138824820518494,0.450351744890213,0.1694519817829132,0.44914233684539795,2.269331455230713,0.997105598449707,,,,,,,
4602184000.0,95.34,0.28999999165534973,12041169408.0,1785.308584209376,185.0,0.0014669154770672321,761856.0,1618.5667207241058,8.871375856145391e-15,0.0,2.0096144676208496,-0.020096153020858765,0.01719731092453003,-0.02009614370763302,-9.313225746154785e-09,0.0,-0.006339292973279953,0.18537211418151855,0.8503689266373401,0.13307328522205353,0.43610879778862,0.12673400342464447,0.47921842336654663,2.294281244277954,0.9975292682647705,,,,,,,
4602184000.0,84.37,0.25999999046325684,12041169408.0,1799.024329109608,186.0,0.002756730653345585,765952.0,1620.843510389328,9.7907792984131e-15,0.0,1.8862037658691406,-0.018862038850784302,0.006997920572757721,-0.018862036988139153,-9.313225746154785e-10,0.0,0.013053955510258675,0.11759597063064575,0.9221179606227592,0.13548263907432556,0.4340054392814636,0.14853660762310028,0.42137986421585083,2.276789665222168,0.9973347187042236,,,,,,,
4602184000.0,86.22,0.30000001192092896,12041169408.0,1786.9038694564213,187.0,0.0031308215111494064,770048.0,1623.135743379593,9.38832345198648e-15,0.0,1.8487331867218018,-0.01848733052611351,0.011746224015951157,-0.01848733052611351,0.0,0.0,0.007508421316742897,0.153107151389122,0.9240302310478778,0.2126854956150055,0.541095495223999,0.22019392251968384,0.5554884672164917,2.2922329902648926,0.9971487522125244,,,,,,,
4602184000.0,89.28,0.3199999928474426,12041169408.0,1777.1115990102303,188.0,0.0031377633567899466,774144.0,1625.4406070709229,9.664144484666792e-15,0.0,1.8904281854629517,-0.018904289230704308,0.005426846444606781,-0.01890428178012371,-7.450580596923828e-09,0.0,0.017879629507660866,0.10264786332845688,0.9570953786247144,0.18651607632637024,0.4833398461341858,0.20439571142196655,0.4955618679523468,2.304863691329956,0.9972801208496094,,,,,,,
4602184000.0,94.48,0.5299999713897705,12041169408.0,1792.7995471007403,189.0,0.004991964902728796,778240.0,1627.7253019809723,1.1244477571281664e-14,0.0,1.7848596572875977,-0.01784859411418438,0.007168003357946873,-0.01784859597682953,1.862645149230957e-09,0.0,0.00604667654260993,0.11959488689899445,0.9789168716224482,0.4774063229560852,0.8209690451622009,0.48345303535461426,0.8236545324325562,2.2846949100494385,0.9970886707305908,,,,,,,
4602184000.0,98.4,0.6399999856948853,12041169408.0,1814.521839119551,190.0,0.005182934924960136,782336.0,1629.9826459884644,1.0710182740680807e-14,0.0,1.7758846282958984,-0.017758851870894432,0.023600347340106964,-0.017758846282958984,-5.587935447692871e-09,0.0,-0.008720140904188156,0.21710863709449768,0.9220539883874551,0.35127782821655273,0.7281494140625,0.3425576686859131,0.7776427865028381,2.2573440074920654,0.9973163604736328,,,,,,,
4602184000.0,102.55,0.47999998927116394,12041169408.0,1799.4471721021976,191.0,-0.0007416501175612211,786432.0,1632.258900642395,1.0271297701258675e-14,0.0,1.845219373703003,-0.01845218986272812,0.03759666532278061,-0.018452193588018417,3.725290298461914e-09,0.0,-0.03775060176849365,0.2716362178325653,0.8548640053763501,0.2064083218574524,0.6539263725280762,0.16865770518779755,0.7130173444747925,2.276254653930664,0.9971814155578613,,,,,,,
,,,,,,,,,,,,,,,,,,,,,,,,,,0.001898098853416741,0.022188866510987282,0.015984952449798584,0.001898098853416741,0.022188866510987282,0.015984952449798584,
,,,,,,,,,,,,,,,,,,,,,,,,,,0.0009951185202226043,0.015970617532730103,0.014077584259212017,0.0009951185202226043,0.015970617532730103,0.014077584259212017,
,,,,,,,,,,,,,,,,,,,,,,,,,,0.001099575194530189,0.015012127347290516,0.013473876751959324,0.001099575194530189,0.015012127347290516,0.013473876751959324,
,,,,,,,,,,,,,,,,,,,,,,,,,,0.0007433948339894414,0.013879036530852318,0.012159395031630993,0.0007433948339894414,0.013879036530852318,0.012159395031630993,
,,,,,,,,,,,,,,,,,,,,,,,,,,0.0013368522049859166,0.013764576986432076,0.011856384575366974,0.0013368522049859166,0.013764576986432076,0.011856384575366974,
,,,,,,,,,,,,,,,,,,,,,,,,,,0.0009025115869008005,0.01295266393572092,0.01147997472435236,0.0009025115869008005,0.01295266393572092,0.01147997472435236,
,,,,,,,,,,,,,,,,,,,,,,,,,,,,,,,,-1.61
4602444000.0,90.76,0.20000000298023224,11990521856.0,17.0571710677854,192.0,0.0022283876314759254,790528.0,1872.3925068378448,9.237402509576498e-15,0.0,1.7971888780593872,-0.017971888184547424,0.03633777052164078,-0.017971888184547424,0.0,0.0,-0.01458854041993618,0.26922187209129333,0.849459629852512,0.20884087681770325,0.6270377039909363,0.19425234198570251,0.6938791275024414,240.13360619544983,0.9976119995117188,,,,,,,
4602444000.0,92.31,0.38999998569488525,12041169408.0,1800.9783416553214,193.0,0.005766252987086773,794624.0,1874.666826248169,1.063212018426185e-14,0.0,1.7277019023895264,-0.01727702096104622,0.015658317133784294,-0.01727701909840107,-1.862645149230957e-09,0.0,0.013276729732751846,0.17648786306381226,0.9259566029252418,0.3087043762207031,0.6255808472633362,0.32198113203048706,0.6485921740531921,2.2743194103240967,0.9971599578857422,,,,,,,
4602444000.0,92.76,0.5299999713897705,12041169408.0,1803.3319471294317,194.0,0.005774978548288345,798720.0,1876.9381773471832,1.037711583329326e-14,0.0,1.768288493156433,-0.017682883888483047,0.005466965958476067,-0.017682883888483047,0.0,0.0,0.015382091514766216,0.10344049334526062,0.9759014005186395,0.33545297384262085,0.6464835405349731,0.35083502531051636,0.6663380861282349,2.2713510990142822,0.9971327781677246,,,,,,,
4602444000.0,92.37,0.6700000166893005,12041169408.0,1790.8466176143302,195.0,0.0037328938487917185,802816.0,1879.2253637313843,9.135053824493866e-15,0.0,1.7851080894470215,-0.017851075157523155,0.0038054860197007656,-0.017851080745458603,5.587935447692871e-09,0.0,0.0020669661462306976,0.08722704648971558,0.9790913772175126,0.2825646996498108,0.5875014662742615,0.2846316695213318,0.6032376289367676,2.28718638420105,0.9976511001586914,,,,,,,
4602444000.0,95.79,0.5099999904632568,12041169408.0,1734.1584663462183,196.0,0.003926379606127739,806912.0,1881.587316274643,1.0090886459757087e-14,0.0,1.7881900072097778,-0.017881903797388077,0.015693269670009613,-0.01788190007209778,-3.725290298461914e-09,0.0,-0.007511609233915806,0.1770247519016266,0.9324591555333258,0.3357202410697937,0.6531322598457336,0.3282086253166199,0.6811625361442566,2.361952543258667,0.9971663951873779,,,,,,,
4602444000.0,97.54,0.5600000023841858,12041169408.0,1839.1448129887006,197.0,0.005242642946541309,811008.0,1883.814438343048,1.0602629885170245e-14,0.0,1.7633336782455444,-0.017633337527513504,0.012901416048407555,-0.017633335664868355,-9.313225746154785e-10,0.0,0.0018686340190470219,0.16064132750034332,0.9564449213828885,0.3654771149158478,0.7234395742416382,0.36734575033187866,0.7697290182113647,2.2271220684051514,0.9971523284912109,,,,,,,
4602444000.0,96.73,0.6700000166893005,12041169408.0,1816.4668503377459,198.0,0.005813498981297016,815104.0,1886.0693652629852,9.334547024231199e-15,0.0,1.8408517837524414,-0.01840851828455925,0.010115088894963264,-0.01840851828455925,0.0,0.0,0.013311716727912426,0.14162582159042358,0.9436148077197122,0.2531589865684509,0.5971730947494507,0.266470730304718,0.5964305996894836,2.254926919937134,0.9972617626190186,,,,,,,
4602444000.0,92.92,0.6899999976158142,12041169408.0,1777.6636194024252,199.0,0.005634895991533995,819200.0,1888.3735132217407,1.0842021724855044e-14,0.0,1.7300142049789429,-0.017300140112638474,0.015037340112030506,-0.017300141975283623,1.862645149230957e-09,0.0,0.0076457541435956955,0.17327304184436798,0.9185635192901094,0.26680445671081543,0.5998802781105042,0.2744501829147339,0.6071856617927551,2.304147958755493,0.9983394145965576,,,,,,,
4602444000.0,90.97,0.5799999833106995,12041169408.0,1775.1255470719248,200.0,0.004140010103583336,823296.0,1890.6809556484222,9.004949563795606e-15,0.0,1.853482961654663,-0.018534833565354347,0.004150662571191788,-0.01853482984006405,-3.725290298461914e-09,0.0,0.007259103935211897,0.09083306044340134,0.9653546948014616,0.20699304342269897,0.48444950580596924,0.21425215899944305,0.4880021810531616,2.3074424266815186,0.997136116027832,,,,,,,
4602444000.0,95.57,0.550000011920929,12041169408.0,1753.2527202412934,201.0,0.002828422235324979,827392.0,1893.0171847343445,1.1157741397482823e-14,0.0,1.7230350971221924,-0.017230365425348282,0.00195016257930547,-0.017230350524187088,-1.4901161193847656e-08,0.0,-0.008257893845438957,0.061911772936582565,0.9919716006209295,0.36632007360458374,0.6867677569389343,0.35806214809417725,0.6909693479537964,2.336229085922241,1.0001072883605957,,,,,,,
4602444000.0,102.9,0.46000000834465027,12041169408.0,1754.704280949292,202.0,0.003209847491234541,831488.0,1895.3514811992645,1.1149067780102939e-14,0.0,1.7700272798538208,-0.017700279131531715,0.025030294433236122,-0.01770027168095112,-7.450580596923828e-09,0.0,-0.02063017338514328,0.2228163182735443,0.8868357808823938,0.31545743346214294,0.6124075055122375,0.29482725262641907,0.6623574495315552,2.334296464920044,0.9972755908966064,,,,,,,
4602444000.0,109.12,0.36000001430511475,12041169408.0,1792.8197527246527,203.0,5.820766091346741e-11,835584.0,1897.6361503601074,1.1633055629900468e-14,0.0,1.779734492301941,-0.01779734157025814,0.03600342199206352,-0.01779734529554844,3.725290298461914e-09,0.0,-0.043011244386434555,0.2649037837982178,0.7463024255883273,0.16330908238887787,0.43798592686653137,0.12029784917831421,0.5259324908256531,2.2846691608428955,0.9972386360168457,,,,,,,
4602444000.0,103.27,0.30000001192092896,12041169408.0,1759.8963870014989,204.0,0.002841752488166094,839680.0,1899.9635601043701,1.1737139038459077e-14,0.0,1.794599175453186,-0.017945991829037666,0.014964358881115913,-0.017945991829037666,0.0,0.0,-0.010984030552208424,0.17267121374607086,0.9301711481624998,0.2666378617286682,0.6308207511901855,0.25565385818481445,0.6534351706504822,2.3274097442626953,0.9969160556793213,,,,,,,
4602444000.0,95.66,0.30000001192092896,12041169408.0,1800.8569527968527,205.0,0.0045549990609288216,843776.0,1902.2380328178406,1.0809061978811485e-14,0.0,1.8678739070892334,-0.018678734079003334,0.006172633729875088,-0.018678737804293633,3.725290298461914e-09,0.0,0.012143459171056747,0.1104571595788002,0.9597969978524653,0.23246800899505615,0.5498227477073669,0.244611456990242,0.5508896112442017,2.274472713470459,0.9970951080322266,,,,,,,
4602444000.0,94.56,0.5699999928474426,12041169408.0,1773.3189014216077,206.0,0.00703159486874938,847872.0,1904.547826051712,1.0855899512662859e-14,0.0,1.7840579748153687,-0.017840567976236343,0.004650822840631008,-0.01784057915210724,1.1175870895385742e-08,0.0,0.011695128865540028,0.0957450121641159,0.9869785318170113,0.5505149364471436,0.8431733846664429,0.5622100234031677,0.839046835899353,2.30979323387146,0.9971725940704346,,,,,,,
4602444000.0,101.85,0.7300000190734863,12041169408.0,1764.2546736417214,207.0,0.0055184876546263695,851968.0,1906.8694863319397,8.734332701543224e-15,0.0,1.8777029514312744,-0.01877703331410885,0.019311334937810898,-0.01877702958881855,-3.725290298461914e-09,0.0,-0.0009801010601222515,0.19654808938503265,0.9476060321770109,0.48917704820632935,0.8367835879325867,0.4881969690322876,0.8586736917495728,2.321660280227661,0.9972639083862305,,,,,,,
4602444000.0,101.88,0.8100000023841858,12041169408.0,1765.607470611353,208.0,0.005907928571105003,856064.0,1909.1893677711487,9.521897159636694e-15,0.0,1.8700501918792725,-0.01870049349963665,0.0065033938735723495,-0.018700500950217247,7.450580596923828e-09,0.0,0.016619835048913956,0.1128435954451561,0.9702069020495967,0.316956490278244,0.6618591547012329,0.3335763216018677,0.6537611484527588,2.3198814392089844,0.9976723194122314,,,,,,,
4602444000.0,101.13,0.6800000071525574,12041169408.0,1746.8632669479564,209.0,0.0034361514262855053,860160.0,1911.5341420173645,8.911274496092858e-15,0.0,1.8468867540359497,-0.018468867987394333,0.008519823662936687,-0.018468867987394333,0.0,0.0,-0.006185970734804869,0.1304052621126175,0.9674389414978072,0.3646980822086334,0.7195816040039062,0.35851210355758667,0.7226797342300415,2.3447742462158203,0.9974429607391357,,,,,,,
4602444000.0,102.86,0.550000011920929,12041169408.0,1760.6750122751139,210.0,0.004778912290930748,864256.0,1913.8605225086212,8.814129981438157e-15,0.0,1.9219248294830322,-0.019219251349568367,0.014426443725824356,-0.01921924762427807,-3.725290298461914e-09,0.0,0.003771904855966568,0.16984021663665771,0.9334347200197685,0.30821168422698975,0.6534891724586487,0.311983585357666,0.6582891345024109,2.326380491256714,0.9972183704376221,,,,,,,
4602444000.0,98.9,0.7099999785423279,12041169408.0,1785.8599546650073,211.0,0.006888306234031916,868352.0,1916.1540954113007,1.0101294800612948e-14,0.0,1.804168462753296,-0.018041685223579407,0.0210882481187582,-0.018041683360934258,-1.862645149230957e-09,0.0,-1.9159633666276932e-05,0.20539425313472748,0.9261791144110322,0.3377249836921692,0.7504861950874329,0.3377058207988739,0.7559598088264465,2.2935729026794434,0.9970674514770508,,,,,,,
4602444000.0,96.62,0.6800000071525574,12041169408.0,1791.9812280714016,212.0,0.00364210968837142,872448.0,1918.4398336410522,9.386588728510503e-15,0.0,1.963705062866211,-0.019637055695056915,0.005098961293697357,-0.019637050107121468,-5.587935447692871e-09,0.0,0.011410258710384369,0.10035032778978348,0.9747447379055367,0.2734881341457367,0.6297961473464966,0.28489840030670166,0.6314556002616882,2.285738229751587,0.9973437786102295,,,,,,,
4602444000.0,93.38,0.5699999928474426,12041169408.0,1746.7661128454072,213.0,0.0069094556383788586,876544.0,1920.7847383022308,1.012211148232467e-14,0.0,1.8607014417648315,-0.018607009202241898,0.02565663307905197,-0.018607014790177345,5.587935447692871e-09,0.0,0.011120617389678955,0.22627881169319153,0.8893098840367517,0.35698485374450684,0.6847913861274719,0.3681054413318634,0.6801260709762573,2.344904661178589,0.9971826076507568,,,,,,,
4602444000.0,94.28,0.5699999928474426,12041169408.0,1793.9651080527613,214.0,0.00288307829760015,880640.0,1923.0679488182068,8.996275946415722e-15,0.0,1.882171392440796,-0.018821708858013153,0.02704182267189026,-0.01882171258330345,3.725290298461914e-09,0.0,0.003933247644454241,0.23255403339862823,0.8334268781875859,0.24830308556556702,0.5096851587295532,0.25223633646965027,0.5697985887527466,2.283210515975952,0.9971506595611572,,,,,,,
4602444000.0,106.22,0.699999988079071,12041169408.0,1756.4211005646662,215.0,0.00384996784850955,884736.0,1925.3999636173248,1.0628650737309897e-14,0.0,1.8738094568252563,-0.018738094717264175,0.012893413193523884,-0.018738094717264175,9.313225746154785e-10,0.0,0.013615732081234455,0.160024031996727,0.8965400225938938,0.2294473648071289,0.46211498975753784,0.2430630922317505,0.4975068271160126,2.332014799118042,0.9970612525939941,,,,,,,
4602444000.0,102.19,0.5600000023841858,12041169408.0,1751.7458639925183,216.0,0.004626385401934385,888832.0,1927.7382023334503,1.2259290804728096e-14,0.0,1.8106892108917236,-0.018106888979673386,0.03555196523666382,-0.018106890842318535,2.7939677238464355e-09,0.0,-0.02240268513560295,0.2657428979873657,0.8201620496895007,0.28765374422073364,0.5824065804481506,0.2652510404586792,0.6266441345214844,2.3382387161254883,0.9973485469818115,,,,,,,
4602444000.0,93.47,0.28999999165534973,12041169408.0,1777.522731512459,217.0,0.002316812053322792,892928.0,1930.0425329208374,1.0245276849119023e-14,0.0,1.8902064561843872,-0.018902063369750977,0.04611713066697121,-0.018902063369750977,0.0,0.0,-0.0353306382894516,0.3016757071018219,0.7921721806004367,0.3067851960659027,0.5989696383476257,0.2714545726776123,0.6617416143417358,2.304330587387085,0.997124433517456,,,,,,,
4602444000.0,97.73,0.5199999809265137,12041169408.0,1781.2955886573532,218.0,0.0069584921002388,897024.0,1932.3419828414917,9.13852327144582e-15,0.0,1.9379487037658691,-0.01937948912382126,0.008183173835277557,-0.01937948726117611,-1.862645149230957e-09,0.0,0.02162744104862213,0.12610504031181335,0.9493323185362678,0.3086709976196289,0.5389917492866516,0.33029842376708984,0.5602307915687561,2.299449920654297,0.997136116027832,,,,,,,
4602444000.0,97.9,0.6399999856948853,12041169408.0,1822.5771483791723,219.0,0.004453098867088556,901120.0,1934.5893499851227,1.0885389811754465e-14,0.0,1.8456714153289795,-0.018456706777215004,0.01783073879778385,-0.0184567142277956,7.916241884231567e-09,0.0,0.01052042841911316,0.18857219815254211,0.8457577544762125,0.2627652883529663,0.44528713822364807,0.27328574657440186,0.4801490008831024,2.2473671436309814,0.9974386692047119,,,,,,,
4602444000.0,101.42,0.6299999952316284,12041169408.0,1747.6814239378432,220.0,0.0046541267074644566,905216.0,1936.9330265522003,1.170244456893954e-14,0.0,1.8060396909713745,-0.018060393631458282,0.008823306299746037,-0.01806039735674858,3.259629011154175e-09,0.0,0.007395425345748663,0.1326507180929184,0.9409905114177975,0.3606472909450531,0.5361275672912598,0.3680427074432373,0.5460705161094666,2.3436765670776367,0.997687816619873,,,,,,,
4602444000.0,103.39,0.6000000238418579,12041169408.0,1812.7982615575474,221.0,0.004466081969439983,909312.0,1939.1925168037415,1.2644399416394947e-14,0.0,1.838927984237671,-0.018389279022812843,0.030661987140774727,-0.018389279022812843,0.0,0.0,-0.02220679074525833,0.24666917324066162,0.8385737700656893,0.35031813383102417,0.5726273059844971,0.32811135053634644,0.6139427423477173,2.2594902515411377,0.9973735809326172,,,,,,,
4602444000.0,96.82,0.6000000238418579,12041169408.0,1804.093789228575,222.0,0.005248741712421179,913408.0,1941.462908744812,1.3232470674751085e-14,0.0,1.8967126607894897,-0.01896713301539421,0.024500057101249695,-0.018967125564813614,-7.450580596923828e-09,0.0,0.0013497709296643734,0.22138260304927826,0.8452041649840724,0.36479073762893677,0.5092498660087585,0.3661405146121979,0.56268310546875,2.2703919410705566,0.9971153736114502,,,,,,,
4602444000.0,96.22,0.4399999976158142,12041169408.0,1805.6361062705869,223.0,0.0027253602165728807,917504.0,1943.7313613891602,1.2269699145583957e-14,0.0,1.8686351776123047,-0.018686354160308838,0.018295366317033768,-0.01868635043501854,-3.725290298461914e-09,0.0,-0.007717994973063469,0.1911546289920807,0.8588251143362977,0.21014580130577087,0.45115092396736145,0.20242780447006226,0.5087518692016602,2.2684526443481445,0.9972715377807617,,,,,,,
,,,,,,,,,,,,,,,,,,,,,,,,,,0.010640239343047142,0.027135327458381653,0.021706432104110718,0.010640239343047142,0.027135327458381653,0.021706432104110718,
,,,,,,,,,,,,,,,,,,,,,,,,,,0.005096834152936935,0.019176000729203224,0.01834164373576641,0.005096834152936935,0.019176000729203224,0.01834164373576641,
,,,,,,,,,,,,,,,,,,,,,,,,,,0.0034690911415964365,0.017774559557437897,0.016503531485795975,0.0034690911415964365,0.017774559557437897,0.016503531485795975,
,,,,,,,,,,,,,,,,,,,,,,,,,,0.002459200331941247,0.016432421281933784,0.01485634408891201,0.002459200331941247,0.016432421281933784,0.01485634408891201,
,,,,,,,,,,,,,,,,,,,,,,,,,,0.0026010472793132067,0.015766380354762077,0.013961897231638432,0.0026010472793132067,0.015766380354762077,0.013961897231638432,
,,,,,,,,,,,,,,,,,,,,,,,,,,0.0023514931090176105,0.015243022702634335,0.01315199676901102,0.0023514931090176105,0.015243022702634335,0.01315199676901102,
,,,,,,,,,,,,,,,,,,,,,,,,,,,,,,,,-1.02
4602444000.0,96.77,0.46000000834465027,11990521856.0,17.025496690043823,224.0,0.003118724562227726,921600.0,2184.3117141723633,1.0103029524088925e-14,0.0,1.8178004026412964,-0.018178002908825874,0.05283316969871521,-0.018178002908825874,0.0,0.0,-0.056838929653167725,0.3200947940349579,0.8108265741725346,0.36844491958618164,0.687551736831665,0.3116059899330139,0.7359503507614136,240.58035278320312,0.9974277019500732,,,,,,,
4602444000.0,91.05,0.4000000059604645,12041169408.0,1821.8009715002624,225.0,0.004489079117774963,925696.0,2186.560038805008,1.1504686092678185e-14,0.0,1.761150598526001,-0.017611509189009666,0.026010485365986824,-0.017611505463719368,-3.725290298461914e-09,0.0,-0.020870594307780266,0.22715190052986145,0.8030834267132532,0.20520329475402832,0.4960111677646637,0.1843326836824417,0.511888325214386,2.2483246326446533,0.9973127841949463,,,,,,,
4602444000.0,91.82,0.41999998688697815,12041169408.0,1731.2456633124787,226.0,0.0037136608734726906,929792.0,2188.925965309143,1.0935696792557792e-14,0.0,1.7618589401245117,-0.017618592828512192,0.01725841499865055,-0.017618589103221893,-3.725290298461914e-09,0.0,-0.0002789413556456566,0.18580953776836395,0.8901005424020969,0.27017778158187866,0.533728837966919,0.26989883184432983,0.5604930520057678,2.365926504135132,0.9972941875457764,,,,,,,
4602444000.0,90.26,0.5899999737739563,12041169408.0,1794.746990876912,227.0,0.005481015425175428,933888.0,2191.208181142807,1.2195106036116954e-14,0.0,1.7496321201324463,-0.01749633625149727,0.010783656500279903,-0.017496321350336075,-1.4901161193847656e-08,0.0,0.007085657678544521,0.1467050164937973,0.8653058561631524,0.15761229395866394,0.37563902139663696,0.16469796001911163,0.3997335433959961,2.2822158336639404,0.9969847202301025,,,,,,,
4602444000.0,94.21,0.6200000047683716,12041169408.0,1778.0635978242049,228.0,0.0058805327862501144,937984.0,2193.5118107795715,1.2252351910824189e-14,0.0,1.797133207321167,-0.01797131635248661,0.0036939377896487713,-0.017971331253647804,1.4901161193847656e-08,0.0,0.018036991357803345,0.08404919505119324,0.9763280166235417,0.26482874155044556,0.5265890955924988,0.2828657031059265,0.5462811589241028,2.3036296367645264,0.9973659515380859,,,,,,,
4602444000.0,92.28,0.5299999713897705,12041169408.0,1745.942602157221,229.0,0.0037305064033716917,942080.0,2195.8578214645386,9.938230793871128e-15,0.0,1.8389463424682617,-0.01838948018848896,0.007337941788136959,-0.018389463424682617,-1.6763806343078613e-08,0.0,0.023060716688632965,0.11894343793392181,0.9505013042344804,0.32708939909935,0.5266500115394592,0.35015010833740234,0.5346180200576782,2.346010684967041,0.9970676898956299,,,,,,,
4602444000.0,96.55,0.6399999856948853,12041169408.0,1757.563558862101,230.0,0.00707768090069294,946176.0,2198.1883203983307,1.0130785099704553e-14,0.0,1.810875654220581,-0.018108755350112915,0.007943137548863888,-0.018108755350112915,0.0,0.0,0.023893382400274277,0.12377043813467026,0.9363900898721428,0.2968779504299164,0.4679313004016876,0.32077133655548096,0.490743488073349,2.3304989337921143,0.9974465370178223,,,,,,,
4602444000.0,104.26,0.7099999785423279,12041169408.0,1806.3286735726845,231.0,0.004133889451622963,950272.0,2200.4559032917023,1.0475995071423938e-14,0.0,1.789884328842163,-0.017898838967084885,0.026722200214862823,-0.017898842692375183,3.725290298461914e-09,0.0,-0.006837759166955948,0.23110751807689667,0.8521472956117888,0.260783314704895,0.5439931750297546,0.253945529460907,0.6010345220565796,2.267582893371582,0.997382640838623,,,,,,,
4602444000.0,100.69,0.6800000071525574,12041169408.0,1786.853317363167,232.0,0.006701543461531401,954368.0,2202.7482011318207,8.971989817752046e-15,0.0,1.7844645977020264,-0.01784464344382286,0.005263727158308029,-0.01784464530646801,9.313225746154785e-10,0.0,0.0157257579267025,0.10140348225831985,0.9686466221504928,0.3377705514431,0.5547775626182556,0.3534963130950928,0.57267826795578,2.292297840118408,0.9971771240234375,,,,,,,
4602444000.0,103.56,0.7200000286102295,12041169408.0,1765.6620901960096,233.0,0.008287221193313599,958464.0,2205.0680108070374,9.584347204771859e-15,0.0,1.81858229637146,-0.018185822293162346,0.012619184330105782,-0.018185822293162346,0.0,0.0,0.03448708355426788,0.1550963670015335,0.932284103847855,0.355718195438385,0.5793771743774414,0.3902052938938141,0.5960137844085693,2.319809675216675,0.9972798824310303,,,,,,,
4602444000.0,101.45,0.8199999928474426,12041169408.0,1812.1095176450497,234.0,0.003952283877879381,962560.0,2207.3283598423004,9.998946115530316e-15,0.0,1.9624354839324951,-0.01962434872984886,0.008502454496920109,-0.01962435431778431,6.51925802230835e-09,0.0,0.029347553849220276,0.12707309424877167,0.8586102016292594,0.14232076704502106,0.3032667338848114,0.17166832089424133,0.3379438817501068,2.2603490352630615,0.9970846176147461,,,,,,,
4602444000.0,104.0,0.6399999856948853,12041169408.0,1772.2255261837483,235.0,0.0031670613680034876,966656.0,2209.639578104019,8.680556273787943e-15,0.0,1.9370872974395752,-0.019370872527360916,0.006276321597397327,-0.019370872527360916,9.313225746154785e-10,0.0,0.00351882865652442,0.11199697852134705,0.9518746697690166,0.2825413942337036,0.5021013021469116,0.28606024384498596,0.5105278491973877,2.31121826171875,0.9975404739379883,,,,,,,
4602444000.0,99.99,0.5699999928474426,12041169408.0,1815.4508496226729,236.0,0.00693669356405735,970752.0,2211.8957669734955,9.374445664178666e-15,0.0,1.8957918882369995,-0.018957918509840965,0.005090716760605574,-0.018957918509840965,0.0,0.0,0.025589583441615105,0.09761625528335571,0.9701141895477889,0.33189624547958374,0.5409943461418152,0.357485830783844,0.5646634101867676,2.2561888694763184,0.9972455501556396,,,,,,,
4602444000.0,102.85,0.7099999785423279,12041169408.0,1836.2620244013078,237.0,0.004166890401393175,974848.0,2214.126385450363,8.239936510889834e-15,0.0,1.9547628164291382,-0.019547628238797188,0.05531850457191467,-0.019547628238797188,0.0,0.0,-0.012536700814962387,0.33242565393447876,0.7188084958392548,0.37090203166007996,0.5334895253181458,0.35836532711982727,0.6268930435180664,2.230618476867676,0.997169017791748,,,,,,,
4602444000.0,106.33,0.6800000071525574,12041169408.0,1729.3724146289512,238.0,0.007150257006287575,978944.0,2216.494874715805,9.194034422677078e-15,0.0,1.9441208839416504,-0.019441217184066772,0.018264591693878174,-0.019441207870841026,-9.313225746154785e-09,0.0,0.03803827986121178,0.18732549250125885,0.9109661385695715,0.44419968128204346,0.5683838129043579,0.48223796486854553,0.6277970671653748,2.3684892654418945,0.9973125457763672,,,,,,,
4602444000.0,103.39,0.7099999785423279,12041169408.0,1820.9457398554637,239.0,0.005168835166841745,983040.0,2218.7442553043365,9.154135782729611e-15,0.0,1.963993787765503,-0.01963992789387703,0.019464509561657906,-0.019639937207102776,8.381903171539307e-09,0.0,0.01649758219718933,0.19663745164871216,0.8635878056493207,0.26858240365982056,0.48679372668266296,0.2850799560546875,0.532401978969574,2.249380588531494,0.9973838329315186,,,,,,,
4602444000.0,98.48,0.699999988079071,12041169408.0,1790.8150693127845,240.0,0.004579167813062668,987136.0,2221.0314819812775,9.38832345198648e-15,0.0,1.9460022449493408,-0.01946001872420311,0.0227225199341774,-0.019460022449493408,3.725290298461914e-09,0.0,-0.004603716544806957,0.21315471827983856,0.846796850194863,0.29001671075820923,0.513971745967865,0.28541299700737,0.544579267501831,2.287226676940918,0.997089147567749,,,,,,,
4602444000.0,99.98,0.5400000214576721,12041169408.0,1823.8249386497987,241.0,0.003986643627285957,991232.0,2223.277311563492,8.831477216197925e-15,0.0,1.9613347053527832,-0.019613338634371758,0.01936252787709236,-0.019613346084952354,7.450580596923828e-09,0.0,0.010164903476834297,0.19654813408851624,0.8969268991079205,0.398642897605896,0.5813478827476501,0.40880778431892395,0.6122040748596191,2.2458295822143555,0.9968221187591553,,,,,,,
4602444000.0,101.49,0.5799999833106995,12041169408.0,1772.7540267516604,242.0,0.0019931690767407417,995328.0,2225.587840795517,9.922618282587337e-15,0.0,1.914661169052124,-0.01914660818874836,0.06733226776123047,-0.019146611914038658,3.725290298461914e-09,0.0,-0.03750376030802727,0.3650897443294525,0.6932646572028431,0.21567997336387634,0.5197847485542297,0.17817619442939758,0.6592008471488953,2.3105292320251465,0.9973340034484863,,,,,,,
4602444000.0,96.7,0.49000000953674316,12041169408.0,1779.3611779584978,243.0,0.005588854197412729,999424.0,2227.889790534973,8.271161533457416e-15,0.0,1.9873569011688232,-0.019873566925525665,0.009774645790457726,-0.019873568788170815,9.313225746154785e-10,0.0,0.0026397895999252796,0.13981091976165771,0.9532187925171655,0.4098355770111084,0.630438506603241,0.4124754071235657,0.6464060544967651,2.3019497394561768,0.9971184730529785,,,,,,,
4602444000.0,98.8,0.47999998927116394,12041169408.0,1820.8243462390628,244.0,0.005795951932668686,1003520.0,2230.139321088791,8.156669784042947e-15,0.0,1.9495935440063477,-0.019495926797389984,0.011351007968187332,-0.01949593424797058,7.450580596923828e-09,0.0,0.00753580778837204,0.15050168335437775,0.9565959586722012,0.4765373468399048,0.7170121073722839,0.4840731620788574,0.7223976850509644,2.249530553817749,0.9971513748168945,,,,,,,
4602444000.0,102.84,0.5799999833106995,12041169408.0,1769.2300118481644,245.0,0.002001185202971101,1007616.0,2232.4544525146484,8.588615929561172e-15,0.0,2.0057179927825928,-0.020057182759046555,0.03799287974834442,-0.020057179033756256,-3.725290298461914e-09,0.0,-0.026501363143324852,0.27441176772117615,0.8101016974666471,0.2985144853591919,0.5582281947135925,0.2720131278038025,0.6297123432159424,2.315131425857544,0.9971225261688232,,,,,,,
4602444000.0,99.57,0.4699999988079071,12041169408.0,1829.6543848139659,246.0,0.006012791767716408,1011712.0,2234.693126678467,7.679620828149325e-15,0.0,2.0236639976501465,-0.02023663930594921,0.013423477299511433,-0.02023663930594921,0.0,0.0,0.012995868921279907,0.16335414350032806,0.9394759556471521,0.5151649117469788,0.6572964191436768,0.528160810470581,0.6639971733093262,2.2386741638183594,0.9971129894256592,,,,,,,
4602444000.0,100.75,0.699999988079071,12041169408.0,1836.969253947429,247.0,0.006217888556420803,1015808.0,2236.9228863716125,8.633718739936569e-15,0.0,1.955792784690857,-0.019557926803827286,0.022397028282284737,-0.019557926803827286,0.0,0.0,0.017975319176912308,0.21090710163116455,0.9225121972577061,0.48390549421310425,0.7053234577178955,0.5018807649612427,0.7576603293418884,2.229759693145752,0.9972898960113525,,,,,,,
4602444000.0,103.21,0.8700000047683716,12041169408.0,1779.4549879393878,248.0,0.007427402772009373,1019904.0,2239.224714756012,9.109032972354214e-15,0.0,1.8306045532226562,-0.018306052312254906,0.047325246036052704,-0.01830604486167431,-7.450580596923828e-09,0.0,0.031547654420137405,0.3060688078403473,0.8276507762620091,0.5235565900802612,0.658107340335846,0.5551042556762695,0.7372493743896484,2.301828384399414,0.9971449375152588,,,,,,,
4602444000.0,116.96,1.100000023841858,12041169408.0,1813.3340156080906,249.0,0.008637985214591026,1024000.0,2241.4835374355316,9.776901510605285e-15,0.0,1.7542712688446045,-0.017542697489261627,0.013640512712299824,-0.01754271239042282,1.3969838619232178e-08,0.0,0.010248956270515919,0.16487152874469757,0.951395604244506,0.5166146159172058,0.6999813914299011,0.5268635749816895,0.7478386759757996,2.2588226795196533,0.9972774982452393,,,,,,,
4602444000.0,116.43,1.0399999618530273,12041169408.0,1783.5244875727988,250.0,0.005026036873459816,1028096.0,2243.780113697052,9.84455572616838e-15,0.0,1.8765588998794556,-0.01876559853553772,0.03916453570127487,-0.018765589222311974,-9.313225746154785e-09,0.0,-0.013621948659420013,0.27957576513290405,0.8229558388162423,0.39567649364471436,0.584488570690155,0.38205456733703613,0.6644444465637207,2.2965762615203857,0.9971222877502441,,,,,,,
4602444000.0,100.13,0.7699999809265137,12041169408.0,1776.5386108996126,251.0,0.006843261886388063,1032192.0,2246.0857207775116,9.870576578308032e-15,0.0,1.9197628498077393,-0.019197631627321243,0.01797594502568245,-0.019197627902030945,-2.7939677238464355e-09,0.0,0.01644418016076088,0.18891847133636475,0.8697258515356217,0.2792408764362335,0.4648374915122986,0.2956850528717041,0.5234139561653137,2.3056070804595947,0.9972827434539795,,,,,,,
4602444000.0,95.56,0.5600000023841858,12041169408.0,1752.1592808545054,252.0,0.0038286077324301004,1036288.0,2248.423407793045,9.83414738531252e-15,0.0,1.9530036449432373,-0.0195300355553627,0.017599111422896385,-0.0195300355553627,0.0,0.0,0.0037059281021356583,0.18759818375110626,0.9275006256560799,0.31079646944999695,0.6176079511642456,0.3145023584365845,0.6967251896858215,2.3376870155334473,0.9977836608886719,,,,,,,
4602444000.0,95.68,0.6299999952316284,12041169408.0,1792.0948803590225,253.0,0.006253279745578766,1040384.0,2250.7090010643005,1.2280107486439817e-14,0.0,1.7284411191940308,-0.01728440262377262,0.012236209586262703,-0.017284410074353218,7.450580596923828e-09,0.0,0.022323360666632652,0.15485458076000214,0.960661408008222,0.3940708339214325,0.7418749332427979,0.4163941740989685,0.7807547450065613,2.285593271255493,0.9976027011871338,,,,,,,
4602444000.0,101.94,0.7400000095367432,12041169408.0,1828.5034983433718,254.0,0.005450622644275427,1044480.0,2252.9490842819214,9.83935155574045e-15,0.0,1.8640382289886475,-0.018640387803316116,0.03548814728856087,-0.01864038221538067,-5.587935447692871e-09,0.0,-0.00030940910801291466,0.2664461135864258,0.8254404552034159,0.38960373401641846,0.5580762624740601,0.3892943263053894,0.63773113489151,2.2400832176208496,0.9976587295532227,,,,,,,
4602444000.0,105.23,0.6899999976158142,12041169408.0,1745.4902593180223,255.0,0.004447705112397671,1048576.0,2255.295702934265,9.80118763926896e-15,0.0,1.920588731765747,-0.019205883145332336,0.0068970732390880585,-0.019205886870622635,2.7939677238464355e-09,0.0,-0.005889448337256908,0.11731504648923874,0.9763349714333993,0.41469815373420715,0.7593057751655579,0.40880870819091797,0.7626059651374817,2.34661865234375,0.9976105690002441,,,,,,,
,,,,,,,,,,,,,,,,,,,,,,,,,,0.0035492763854563236,0.030026162043213844,0.030853087082505226,0.0035492763854563236,0.030026162043213844,0.030853087082505226,
,,,,,,,,,,,,,,,,,,,,,,,,,,0.0018457144033163786,0.02599296346306801,0.024615077301859856,0.0018457144033163786,0.02599296346306801,0.024615077301859856,
