CpuMaxMemory,EpLenMean,EpRewMean,GpuMaxMemory,IPS_total,Iter,Misc/FrameRewMean,Misc/InteractCount,Misc/TimeElapsed,Opt/approxkl,Opt/clipfrac,Opt/entropy,Opt/loss_pi,Opt/loss_vf,Opt/negent,Opt/pg,Opt/pi_kl,VFStats/AdvMean,VFStats/AdvStd,VFStats/EV,VFStats/VpredMean,VFStats/VpredStd,VFStats/VtargMean,VFStats/VtargStd,del_time,wait_optimization,scaled/pol_distance,scaled/vf_aux,scaled/vf_true,unscaled/pol_distance,unscaled/vf_aux,unscaled/vf_true,EvalEpMean
3048676000.0,81.95348837209302,-1.6511627435684204,11965495808.0,1661.8020556202998,0.0,-0.011850596405565739,4096.0,2.464794158935547,2.7547408798511697e-15,0.0,2.7072184085845947,-0.027072187513113022,0.19806966185569763,-0.027072183787822723,-3.725290298461914e-09,0.0,-0.16987670958042145,0.6061112880706787,0.004180882039641398,-0.052543967962265015,0.013142944313585758,-0.22242067754268646,0.6073822975158691,2.464794158935547,1.024336814880371,,,,,,,
3098228000.0,82.56989247311827,-1.8924731016159058,12031147008.0,1676.2164427547725,1.0,-0.010073455050587654,8192.0,4.908392667770386,3.427813588530171e-15,0.0,2.7037410736083984,-0.02703741006553173,0.14062291383743286,-0.02703741006553173,0.0,0.0,-0.037510134279727936,0.5290625095367432,0.0637272935787514,-0.40540361404418945,0.08433942496776581,-0.4429137408733368,0.5467714667320251,2.443598508834839,0.9972412586212158,,,,,,,
3147464000.0,79.45,-2.259999990463257,12031147008.0,1775.5887944817835,2.0,-0.015445267781615257,12288.0,7.215233087539673,4.773959005888173e-15,0.0,2.690721035003662,-0.026907211169600487,0.21609175205230713,-0.026907209306955338,-1.862645149230957e-09,0.0,-0.028757814317941666,0.6568575501441956,0.08682330700528151,-0.9283950328826904,0.18618904054164886,-0.9571529030799866,0.6873750686645508,2.306840419769287,0.9970436096191406,,,,,,,
3196564000.0,77.6,-1.8200000524520874,12031147008.0,1786.2153431035968,3.0,-0.008647337555885315,16384.0,9.508349657058716,5.502542865798432e-15,0.0,2.666654109954834,-0.026666512712836266,0.31445544958114624,-0.026666540652513504,2.7939677238464355e-08,0.0,0.2594829797744751,0.7494776248931885,0.13961479728112114,-1.5911716222763062,0.40209710597991943,-1.331688642501831,0.8080012798309326,2.293116569519043,0.9970493316650391,,,,,,,
3245932000.0,80.47,-1.6200000047683716,12031147008.0,1807.4828026381033,4.0,-0.011214252561330795,20480.0,11.774484634399414,7.834011217511261e-15,0.0,2.631500244140625,-0.026314999908208847,0.2017694115638733,-0.026315001770853996,9.313225746154785e-10,0.0,0.11731000989675522,0.6243976354598999,0.1158348095207461,-1.0945931673049927,0.28622955083847046,-0.977283239364624,0.6640404462814331,2.2661349773406982,0.9969050884246826,,,,,,,
3295036000.0,78.29,-1.649999976158142,12031147008.0,1816.926372146793,5.0,-0.010470818728208542,24576.0,14.028841257095337,7.840950111415168e-15,0.0,2.6204915046691895,-0.026204917579889297,0.18376226723194122,-0.026204913854599,-4.6566128730773926e-09,0.0,0.035736143589019775,0.6052577495574951,0.10871733424860952,-0.7218155860900879,0.20864710211753845,-0.6860794425010681,0.6411101222038269,2.254356622695923,0.9969689846038818,,,,,,,
3344404000.0,73.4,-1.4199999570846558,12031147008.0,1809.0962625555712,6.0,-0.00776391476392746,28672.0,16.29295516014099,6.772360450213455e-15,0.0,2.611752510070801,-0.02611752785742283,0.13494345545768738,-0.02611752413213253,-3.725290298461914e-09,0.0,0.012156987562775612,0.5194275975227356,0.11037967386616843,-0.4866539239883423,0.14335685968399048,-0.4744969308376312,0.5507095456123352,2.2641139030456543,0.9977388381958008,,,,,,,
3393508000.0,74.09,-1.159999966621399,12031147008.0,1821.0324043418068,7.0,-0.009315591305494308,32768.0,18.54222869873047,6.2103100439969694e-15,0.0,2.6318483352661133,-0.026318490505218506,0.18486861884593964,-0.02631848305463791,-7.450580596923828e-09,0.0,-0.03934997692704201,0.6068597435951233,0.013439019536247376,-0.3043404221534729,0.10928168147802353,-0.3436903953552246,0.6109790802001953,2.2492735385894775,0.9971356391906738,,,,,,,
3442612000.0,73.71,-1.309999942779541,12031147008.0,1817.956722141929,8.0,-0.010815232992172241,36864.0,20.795307636260986,6.597153379139797e-15,0.0,2.610219955444336,-0.026102187111973763,0.1533583700656891,-0.026102198287844658,1.1175870895385742e-08,0.0,-0.07739968597888947,0.5484519004821777,0.035556844244711394,-0.22735312581062317,0.08811339735984802,-0.30475282669067383,0.5584704875946045,2.2530789375305176,0.9969017505645752,,,,,,,
3491980000.0,75.27,-1.940000057220459,12031147008.0,1819.299331873647,9.0,-0.013977710157632828,40960.0,23.04672384262085,5.707240235963695e-15,0.0,2.6102945804595947,-0.026102980598807335,0.22607842087745667,-0.0261029452085495,-3.5390257835388184e-08,0.0,-0.16839522123336792,0.6510785818099976,0.027370377723013428,-0.19269828498363495,0.0830361470580101,-0.3610934615135193,0.6601759195327759,2.2514162063598633,0.9973301887512207,,,,,,,
3541084000.0,75.41,-2.2200000286102295,12031147008.0,1791.8117110701432,10.0,-0.012900011613965034,45056.0,25.33267831802368,5.578870698741412e-15,0.0,2.5670595169067383,-0.025670606642961502,0.156058207154274,-0.025670595467090607,-1.1175870895385742e-08,0.0,-0.1281864494085312,0.5438352823257446,0.0036078238428899345,-0.1669912189245224,0.06761883944272995,-0.2951776683330536,0.5448189973831177,2.285954475402832,0.9971439838409424,,,,,,,
3590188000.0,74.84,-2.0899999141693115,12031147008.0,1802.1349045663699,11.0,-0.016046075150370598,49152.0,27.60553812980652,5.898059818321144e-15,0.0,2.4998066425323486,-0.024998072534799576,0.237054243683815,-0.02499806508421898,-7.450580596923828e-09,0.0,-0.20484313368797302,0.6574597358703613,0.026770057744318954,-0.14692680537700653,0.0674702376127243,-0.35176995396614075,0.6664405465126038,2.272859811782837,0.9972336292266846,,,,,,,
3639556000.0,70.38,-1.8700000047683716,12031147008.0,1812.2978090017666,12.0,-0.012567183002829552,53248.0,29.865652322769165,7.016956460326185e-15,0.0,2.3234665393829346,-0.023234661668539047,0.20505855977535248,-0.023234665393829346,2.7939677238464355e-09,0.0,-0.1414097547531128,0.6246724724769592,0.015528158796618285,-0.1750197410583496,0.0629945620894432,-0.3164294958114624,0.6295796632766724,2.2601141929626465,0.9967434406280518,,,,,,,
3688660000.0,70.54,-1.8600000143051147,12031147008.0,1823.9852687118107,13.0,-0.012818959541618824,57344.0,32.111284494400024,7.887787645266542e-15,0.0,2.2047119140625,-0.022047122940421104,0.16874831914901733,-0.022047119215130806,-3.725290298461914e-09,0.0,-0.15605291724205017,0.5596611499786377,0.010869955653799668,-0.17716294527053833,0.06775817275047302,-0.3332158625125885,0.5627279281616211,2.2456321716308594,0.9969284534454346,,,,,,,
3738028000.0,76.34,-1.8799999952316284,12031147008.0,1797.0512428147476,14.0,-0.013241652399301529,61440.0,34.39057397842407,1.2264494975156026e-14,0.0,1.9003112316131592,-0.019003093242645264,0.13842949271202087,-0.019003111869096756,1.862645149230957e-08,0.0,-0.11076931655406952,0.5144450664520264,0.010361073638269214,-0.2366679310798645,0.08035731315612793,-0.3474372625350952,0.5171310901641846,2.279289484024048,0.9970598220825195,,,,,,,
3787132000.0,71.21,-1.340000033378601,12031147008.0,1806.1822561112347,15.0,-0.005765853449702263,65536.0,36.65834069252014,1.2033776752851111e-14,0.0,1.929253339767456,-0.019292527809739113,0.10446160286664963,-0.01929253339767456,5.587935447692871e-09,0.0,-0.015508297830820084,0.4568738043308258,-0.004040936530389283,-0.2665459215641022,0.10251975804567337,-0.28205421566963196,0.455953449010849,2.2677667140960693,0.9969611167907715,,,,,,,
3836236000.0,68.37,-0.9100000262260437,12031147008.0,1743.3403166246726,16.0,-0.0063249338418245316,69632.0,39.007853269577026,1.4472797960074502e-14,0.0,1.8524839878082275,-0.01852484606206417,0.09394969046115875,-0.018524838611483574,-7.916241884231567e-09,0.0,0.001773617696017027,0.43352290987968445,0.033864870502332,-0.29847365617752075,0.09838390350341797,-0.29670000076293945,0.44105538725852966,2.3495125770568848,0.9970331192016602,,,,,,,
3885604000.0,71.76,-1.0099999904632568,12031147008.0,1818.8249374019847,17.0,-0.009456383995711803,73728.0,41.25985670089722,1.5622919624647125e-14,0.0,1.899682641029358,-0.018996821716427803,0.14878243207931519,-0.0189968254417181,3.725290298461914e-09,0.0,-0.043053172528743744,0.5438597798347473,0.03507537578622211,-0.324360191822052,0.10281481593847275,-0.36741334199905396,0.553656280040741,2.2520034313201904,0.9967472553253174,,,,,,,
3934708000.0,69.97,-1.0099999904632568,12031147008.0,1785.4026512703788,18.0,-0.006026920862495899,77824.0,43.554017066955566,1.404432126150823e-14,0.0,1.9759385585784912,-0.01975938491523266,0.1210969090461731,-0.01975938491523266,0.0,0.0,0.02461731806397438,0.49157580733299255,-0.032959962369682794,-0.3885261118412018,0.12989774346351624,-0.3639087677001953,0.48366957902908325,2.2941603660583496,0.9970502853393555,,,,,,,
3983812000.0,74.33,-1.25,12031147008.0,1767.1195571428896,19.0,-0.011572208255529404,81920.0,45.87191343307495,1.1728465421079193e-14,0.0,2.0368900299072266,-0.020368902012705803,0.15020903944969177,-0.020368900150060654,-1.862645149230957e-09,0.0,-0.05209296941757202,0.5456895232200623,0.05203265994442341,-0.3831803798675537,0.11291530728340149,-0.4352733790874481,0.5604656338691711,2.3178963661193848,0.9969761371612549,,,,,,,
4033180000.0,77.5,-1.090000033378601,12031147008.0,1796.679504342758,20.0,-0.003178444691002369,86016.0,48.15167450904846,1.1367642938076017e-14,0.0,2.073523998260498,-0.0207352377474308,0.09083050489425659,-0.02073523961007595,9.313225746154785e-10,0.0,0.04609685018658638,0.4237687289714813,0.12538416797961194,-0.40692800283432007,0.10640143603086472,-0.3608311414718628,0.45312729477882385,2.2797610759735107,0.9972121715545654,,,,,,,
4082284000.0,75.46,-0.7599999904632568,12031147008.0,1803.1773090973822,21.0,-0.006672360934317112,90112.0,50.42322039604187,1.0781306403195856e-14,0.0,2.0951991081237793,-0.02095199003815651,0.11391384154558182,-0.02095199003815651,0.0,0.0,0.012201990932226181,0.4772152304649353,0.1499579786853693,-0.4871559739112854,0.14225317537784576,-0.4749539792537689,0.517599880695343,2.271545886993408,0.9967501163482666,,,,,,,
4131652000.0,73.72,-1.1100000143051147,12031147008.0,1801.5426464988827,22.0,-0.010822534561157227,94208.0,52.69682741165161,1.0014558626814107e-14,0.0,2.08398175239563,-0.020839810371398926,0.16426904499530792,-0.020839817821979523,8.381903171539307e-09,0.0,-0.029425539076328278,0.5724965333938599,0.0055939127536102085,-0.5172236561775208,0.1720566302537918,-0.546649158000946,0.5741044878959656,2.273607015609741,0.9981417655944824,,,,,,,
4180756000.0,70.45,-1.7100000381469727,12031147008.0,1738.1649274093093,23.0,-0.012629669159650803,98304.0,55.053335666656494,1.2358170042858774e-14,0.0,1.9869859218597412,-0.019869854673743248,0.16270995140075684,-0.019869858399033546,3.725290298461914e-09,0.0,-0.03354818373918533,0.5695380568504333,0.08175621316502912,-0.5152239799499512,0.1556578278541565,-0.5487721562385559,0.5943520665168762,2.356508255004883,0.9970381259918213,,,,,,,
4229860000.0,73.56,-1.4700000286102295,12031147008.0,1761.7241877753868,24.0,-0.009149041026830673,102400.0,57.37833070755005,1.173020014455517e-14,0.0,2.008836269378662,-0.02008836902678013,0.17305463552474976,-0.02008836157619953,-7.450580596923828e-09,0.0,-0.007698718458414078,0.5883319973945618,0.09474775598677154,-0.5401639938354492,0.18281449377536774,-0.5478627681732178,0.6183546781539917,2.3249950408935547,0.9972953796386719,,,,,,,
4279228000.0,78.95,-1.149999976158142,12031147008.0,1748.6968326970932,25.0,-0.006203359924256802,106496.0,59.720646381378174,1.0639059078165758e-14,0.0,2.0989627838134766,-0.02098963037133217,0.12719890475273132,-0.02098962664604187,-3.725290298461914e-09,0.0,0.06360989063978195,0.5004125237464905,0.1378410100239319,-0.6136621236801147,0.20378059148788452,-0.5500521659851074,0.5389325618743896,2.342315673828125,0.9970059394836426,,,,,,,
4328332000.0,76.15,-1.5800000429153442,12031147008.0,1815.2964280125407,26.0,-0.013591188937425613,110592.0,61.97702717781067,7.232062171347309e-15,0.0,2.188851833343506,-0.02188851498067379,0.18637597560882568,-0.02188851870596409,3.725290298461914e-09,0.0,-0.06839633733034134,0.6067649722099304,0.09840863146888246,-0.5741515159606934,0.18211333453655243,-0.6425478458404541,0.6390218138694763,2.256380796432495,0.9968569278717041,,,,,,,
4377700000.0,74.79,-1.559999942779541,12031147008.0,1793.8098246396587,27.0,-0.00924557913094759,114688.0,64.2604353427887,7.49747486317176e-15,0.0,2.2058353424072266,-0.022058356553316116,0.13880982995033264,-0.022058352828025818,-4.6566128730773926e-09,0.0,0.028546219691634178,0.5261866450309753,0.07459771965847173,-0.6006770133972168,0.1886916309595108,-0.5721307992935181,0.5469838976860046,2.2834081649780273,0.9979901313781738,,,,,,,
4426804000.0,76.16,-1.149999976158142,12031147008.0,1821.9677087171108,28.0,-0.006533079314976931,118784.0,66.50855422019958,6.7307270867900115e-15,0.0,2.2650222778320312,-0.02265021950006485,0.1339438557624817,-0.02265022136271,9.313225746154785e-10,0.0,0.08114341646432877,0.5112409591674805,0.11276228068875127,-0.652441680431366,0.233473539352417,-0.5712982416152954,0.5427572131156921,2.2481188774108887,0.9968113899230957,,,,,,,
4475908000.0,73.86,-1.3600000143051147,12031147008.0,1743.5812969745489,29.0,-0.013083074241876602,122880.0,68.85774207115173,6.9284855630513675e-15,0.0,2.3058571815490723,-0.023058556020259857,0.1912151575088501,-0.02305857092142105,1.4901161193847656e-08,0.0,-0.04794369265437126,0.6166234612464905,0.22506625976768568,-0.6245031952857971,0.23195171356201172,-0.6724469065666199,0.7004671096801758,2.3491878509521484,0.9971880912780762,,,,,,,
4525276000.0,73.93,-1.6100000143051147,12031147008.0,1801.1120204804142,30.0,-0.009200620464980602,126976.0,71.13189268112183,6.572867250476122e-15,0.0,2.3291258811950684,-0.02329125627875328,0.16546571254730225,-0.02329125814139843,1.862645149230957e-09,0.0,0.0019092308357357979,0.5753334760665894,0.09134755034811015,-0.6366673707962036,0.24223828315734863,-0.6347581148147583,0.6035603880882263,2.2741506099700928,0.9972305297851562,,,,,,,
4574380000.0,75.76,-1.2799999713897705,12031147008.0,1814.3418993875334,31.0,-0.008186872117221355,131072.0,73.38946056365967,5.943162628696541e-15,0.0,2.3488097190856934,-0.023488100618124008,0.14371103048324585,-0.02348809689283371,-3.725290298461914e-09,0.0,0.04114868491888046,0.5346013307571411,0.11819544632693402,-0.6129132509231567,0.2392120063304901,-0.5717645287513733,0.5693035125732422,2.257567882537842,0.9969890117645264,,,,,,,
,,,,,,,,,,,,,,,,,,,,,,,,,,0.005051073618233204,0.1989343762397766,0.186192587018013,0.005051073618233204,0.1989343762397766,0.186192587018013,
,,,,,,,,,,,,,,,,,,,,,,,,,,0.0020373237784951925,0.1732414960861206,0.1602136343717575,0.0020373237784951925,0.1732414960861206,0.1602136343717575,
,,,,,,,,,,,,,,,,,,,,,,,,,,0.0018751377938315272,0.15716074407100677,0.15197128057479858,0.0018751377938315272,0.15716074407100677,0.15197128057479858,
,,,,,,,,,,,,,,,,,,,,,,,,,,0.0012147731613367796,0.1408655345439911,0.1348535269498825,0.0012147731613367796,0.1408655345439911,0.1348535269498825,
,,,,,,,,,,,,,,,,,,,,,,,,,,0.0006580397021025419,0.12773838639259338,0.12260937690734863,0.0006580397021025419,0.12773838639259338,0.12260937690734863,
,,,,,,,,,,,,,,,,,,,,,,,,,,0.0011895588831976056,0.12182136625051498,0.11527267098426819,0.0011895588831976056,0.12182136625051498,0.11527267098426819,
,,,,,,,,,,,,,,,,,,,,,,,,,,,,,,,,-1.92
4590840000.0,76.22,-1.0299999713897705,11990518784.0,17.01025584055245,32.0,-0.007924746721982956,135168.0,314.18536853790283,5.4903998014665945e-15,0.0,2.4065964221954346,-0.02406596764922142,0.12259367108345032,-0.024065963923931122,-3.725290298461914e-09,0.0,0.04602566361427307,0.49308040738105774,0.6118644323443283,-0.5715826749801636,0.5099048614501953,-0.5255569815635681,0.7914546728134155,240.79590797424316,0.9970614910125732,,,,,,,
4590840000.0,75.6,-1.8700000047683716,12041169408.0,1808.2458727894605,33.0,-0.020184507593512535,139264.0,316.45054721832275,5.88418203051333e-15,0.0,2.4097447395324707,-0.024097442626953125,0.16773466765880585,-0.024097446352243423,4.6566128730773926e-09,0.0,-0.045224033296108246,0.5774993896484375,0.612822455778129,-0.7254273891448975,0.6118528246879578,-0.7706514000892639,0.9281035661697388,2.265178680419922,0.9971892833709717,,,,,,,
4590840000.0,73.33,-1.9299999475479126,12041169408.0,1781.0970650344864,34.0,-0.008349224925041199,143360.0,318.7502534389496,5.549380399649806e-15,0.0,2.4043049812316895,-0.02404305897653103,0.1252850443124771,-0.024043049663305283,-9.313225746154785e-09,0.0,0.08318616449832916,0.4936695694923401,0.582357940358458,-0.6618367433547974,0.5478407740592957,-0.5786505937576294,0.763896107673645,2.299706220626831,0.9972689151763916,,,,,,,
4590840000.0,76.84,-1.5800000429153442,12041169408.0,1815.7954675793487,35.0,-0.01213653665035963,147456.0,321.00601410865784,5.27008992001754e-15,0.0,2.3703176975250244,-0.023703191429376602,0.12603503465652466,-0.02370317652821541,-1.4901161193847656e-08,0.0,0.046681296080350876,0.49995192885398865,0.6814266179423104,-0.7735480070114136,0.6478596329689026,-0.7268667221069336,0.8857752084732056,2.255760669708252,0.9969081878662109,,,,,,,
4590840000.0,72.93,-1.659999966621399,12041169408.0,1754.569158994283,36.0,-0.013034297153353691,151552.0,323.3404903411865,5.591013763073249e-15,0.0,2.382608413696289,-0.023826098069548607,0.13676302134990692,-0.023826083168387413,-1.4901161193847656e-08,0.0,0.08465994894504547,0.5161625742912292,0.6714709442632367,-0.750120997428894,0.6374770998954773,-0.6654610633850098,0.9005330204963684,2.3344762325286865,0.9970963001251221,,,,,,,
4590840000.0,72.93,-1.809999942779541,12041169408.0,1797.1958075433422,37.0,-0.01315205730497837,155648.0,325.61959648132324,4.727121472036799e-15,0.0,2.391361713409424,-0.02391362003982067,0.13369499146938324,-0.023913616314530373,-3.725290298461914e-09,0.0,-0.017031973227858543,0.516880214214325,0.7405386975162931,-0.7424057722091675,0.7337999939918518,-0.7594376802444458,1.0147372484207153,2.2791061401367188,0.9974937438964844,,,,,,,
4590840000.0,77.51,-1.4199999570846558,12041169408.0,1794.9947042028898,38.0,-0.008467646315693855,159744.0,327.9014973640442,5.6881582777279505e-15,0.0,2.3984384536743164,-0.023984389379620552,0.14282895624637604,-0.023984383791685104,-5.587935447692871e-09,0.0,0.09497447311878204,0.5260278582572937,0.654884443400074,-0.6714850068092346,0.6857844591140747,-0.5765105485916138,0.8954193592071533,2.2819008827209473,0.9971563816070557,,,,,,,
4590840000.0,74.55,-0.9900000095367432,12041169408.0,1815.7240771707632,39.0,-0.007033711764961481,163840.0,330.15734672546387,5.296110772157192e-15,0.0,2.4341351985931396,-0.024341348558664322,0.12497754395008087,-0.02434135228395462,4.6566128730773926e-09,0.0,0.0873929038643837,0.49231773614883423,0.7050056201764404,-0.599138081073761,0.6783943176269531,-0.5117452144622803,0.9064390659332275,2.2558493614196777,0.997222900390625,,,,,,,
4590840000.0,76.12,-1.309999942779541,12041169408.0,1752.2430956965582,40.0,-0.009227113798260689,167936.0,332.4949219226837,5.5077470362263625e-15,0.0,2.3886098861694336,-0.02388611063361168,0.12909013032913208,-0.023886097595095634,-1.30385160446167e-08,0.0,0.0678965151309967,0.5036191940307617,0.7314124124735251,-0.6440830826759338,0.7810962796211243,-0.5761865377426147,0.9717605113983154,2.3375751972198486,0.9971082210540771,,,,,,,
4590840000.0,77.15,-1.5399999618530273,12041169408.0,1773.9771863557605,41.0,-0.011954382061958313,172032.0,334.8038580417633,5.918876500032866e-15,0.0,2.427438735961914,-0.024274379014968872,0.1298966109752655,-0.02427438646554947,7.450580596923828e-09,0.0,0.008975734934210777,0.5096823573112488,0.7036543680847559,-0.5276206731796265,0.7565945386886597,-0.5186449885368347,0.9362683296203613,2.30893611907959,0.997051477432251,,,,,,,
4590840000.0,72.21,-1.309999942779541,12041169408.0,1779.6866985845581,42.0,-0.0070313336327672005,176128.0,337.1053867340088,5.370703881624195e-15,0.0,2.4136691093444824,-0.02413669414818287,0.07460048049688339,-0.02413669042289257,-3.725290298461914e-09,0.0,0.0504581481218338,0.38300228118896484,0.6346454563841792,-0.2877444624900818,0.5087867975234985,-0.23728632926940918,0.6336422562599182,2.3015286922454834,0.9970972537994385,,,,,,,
4590840000.0,73.64,-1.2699999809265137,12041169408.0,1827.8401089477604,43.0,-0.012737678363919258,180224.0,339.3462829589844,4.876307690970805e-15,0.0,2.4255189895629883,-0.024255188181996346,0.15101242065429688,-0.024255190044641495,1.862645149230957e-09,0.0,-0.009841326624155045,0.5495468378067017,0.7056544993471874,-0.4696306586265564,0.7852658629417419,-0.47947195172309875,1.012921929359436,2.240896224975586,0.997028112411499,,,,,,,
4590840000.0,75.23,-1.8899999856948853,12041169408.0,1757.6297296636446,44.0,-0.014511342160403728,184320.0,341.6766941547394,5.35162192338845e-15,0.0,2.421083450317383,-0.02421083115041256,0.14651049673557281,-0.024210834875702858,3.725290298461914e-09,0.0,-0.030668195337057114,0.5405107140541077,0.7067558323696314,-0.41231614351272583,0.8175868391990662,-0.44298434257507324,0.9981356859207153,2.330411195755005,0.9970173835754395,,,,,,,
4590840000.0,75.23,-1.7200000286102295,12041169408.0,1757.365615642187,45.0,-0.007785283960402012,188416.0,344.0074555873871,5.617034615212901e-15,0.0,2.421442985534668,-0.024214429780840874,0.10944439470767975,-0.024214429780840874,0.0,0.0,0.03161054849624634,0.4668433964252472,0.7935849519961817,-0.4229201078414917,0.9927557706832886,-0.39130955934524536,1.0275442600250244,2.330761432647705,0.9970762729644775,,,,,,,
4590840000.0,76.35,-1.5199999809265137,12041169408.0,1774.4273719177481,46.0,-0.010904849506914616,192512.0,346.3158059120178,6.1201044232461754e-15,0.0,2.4163308143615723,-0.02416330575942993,0.09049560129642487,-0.02416330762207508,2.7939677238464355e-09,0.0,-0.005232636816799641,0.4254503548145294,0.8184836562326505,-0.33069682121276855,0.9166855216026306,-0.3359294533729553,0.9985987544059753,2.3083503246307373,0.9977900981903076,,,,,,,
4590840000.0,78.92,-1.340000033378601,12041169408.0,1762.817301475555,47.0,-0.011017209850251675,196608.0,348.63935923576355,5.937958458268611e-15,0.0,2.4255456924438477,-0.02425543963909149,0.12029723078012466,-0.024255456402897835,1.6763806343078613e-08,0.0,0.01434993278235197,0.49035418033599854,0.742517691321472,-0.3369697332382202,0.8748510479927063,-0.32261979579925537,0.9663539528846741,2.3235533237457275,0.9972178936004639,,,,,,,
4590840000.0,75.48,-1.149999976158142,12041169408.0,1836.69941362016,48.0,-0.006363541819155216,200704.0,350.869446516037,5.412337245047638e-15,0.0,2.4241952896118164,-0.024241959676146507,0.09598015248775482,-0.02424195222556591,-7.450580596923828e-09,0.0,0.03799121081829071,0.4365357756614685,0.6269696428039653,-0.23706933856010437,0.6319071054458618,-0.19907814264297485,0.7147395014762878,2.2300872802734375,0.997117280960083,,,,,,,
4590840000.0,74.58,-1.0800000429153442,12041169408.0,1783.539115033958,49.0,-0.009467246942222118,204800.0,353.1660039424896,5.830405602758049e-15,0.0,2.4234962463378906,-0.024234965443611145,0.09038043767213821,-0.024234961718320847,-3.725290298461914e-09,0.0,0.011036021634936333,0.4250684678554535,0.8219217936324992,-0.29977306723594666,0.863581120967865,-0.28873705863952637,1.0072877407073975,2.2965574264526367,0.9971323013305664,,,,,,,
4590840000.0,77.97,-1.2000000476837158,12041169408.0,1750.9688683925901,50.0,-0.005715016275644302,208896.0,355.50528025627136,5.564992910933597e-15,0.0,2.4365808963775635,-0.02436581626534462,0.0840737596154213,-0.024365808814764023,-8.381903171539307e-09,0.0,0.03821725770831108,0.4083229899406433,0.7474820800519787,-0.1975071132183075,0.7068088054656982,-0.15928985178470612,0.8125642538070679,2.3392763137817383,0.997485876083374,,,,,,,
4590840000.0,75.91,-0.5600000023841858,12041169408.0,1783.4635732577256,51.0,-0.004167445003986359,212992.0,357.8019349575043,6.741135427645872e-15,0.0,2.420297145843506,-0.02420296147465706,0.09860953688621521,-0.024202970787882805,9.313225746154785e-09,0.0,0.009697183966636658,0.4440418779850006,0.6838972614280697,-0.12571541965007782,0.7169836163520813,-0.11601823568344116,0.7897866368293762,2.29665470123291,0.9971013069152832,,,,,,,
4590840000.0,74.75,-0.800000011920929,12041169408.0,1820.6298414100643,52.0,-0.006397573743015528,217088.0,360.05170583724976,6.4618449480136064e-15,0.0,2.431246280670166,-0.02431245893239975,0.06501995027065277,-0.024312462657690048,2.7939677238464355e-09,0.0,-0.027281589806079865,0.3596208989620209,0.7811445319050992,-0.08584706485271454,0.7034671902656555,-0.113128662109375,0.76871657371521,2.2497708797454834,0.9972496032714844,,,,,,,
4590840000.0,75.45,-0.9200000166893005,12041169408.0,1762.1099759877352,53.0,-0.008386711589992046,221184.0,362.37619185447693,6.50347831143705e-15,0.0,2.3804450035095215,-0.023804450407624245,0.07490745186805725,-0.023804450407624245,0.0,0.0,-0.023187503218650818,0.38641130924224854,0.7083939674211546,-0.08558101952075958,0.7081508040428162,-0.1087685152888298,0.7155690789222717,2.324486017227173,0.9972584247589111,,,,,,,
4590840000.0,73.77,-1.0199999809265137,12041169408.0,1756.6736144080235,54.0,-0.008929209783673286,225280.0,364.70787143707275,6.0212251851154974e-15,0.0,2.3895206451416016,-0.023895207792520523,0.0872388482093811,-0.023895205929875374,-2.7939677238464355e-09,0.0,-0.06217687204480171,0.4131021499633789,0.6557526663744716,-0.013465571217238903,0.574187695980072,-0.07564243674278259,0.7040802240371704,2.331679582595825,0.9972069263458252,,,,,,,
4590840000.0,76.03,-0.949999988079071,12041169408.0,1811.2156200087081,55.0,-0.0034267769660800695,229376.0,366.96933603286743,6.349087922075114e-15,0.0,2.3913955688476562,-0.023913957178592682,0.05354900658130646,-0.023913955315947533,-1.862645149230957e-09,0.0,-0.003709513694047928,0.3272772431373596,0.7137394147564456,0.01242130808532238,0.5594732761383057,0.008711795322597027,0.6116951704025269,2.2614645957946777,0.9970965385437012,,,,,,,
4590840000.0,76.27,-0.5400000214576721,12041169408.0,1809.7991132970262,56.0,-0.003968066535890102,233472.0,369.23257064819336,6.801850749305061e-15,0.0,2.425173759460449,-0.024251732975244522,0.0657975897192955,-0.02425173670053482,2.7939677238464355e-09,0.0,-0.022687483578920364,0.36209455132484436,0.5326788593325074,0.054668523371219635,0.388942688703537,0.03198103606700897,0.5296809077262878,2.2632346153259277,0.9970810413360596,,,,,,,
4590840000.0,74.03,-0.5099999904632568,12041169408.0,1826.7829887566925,57.0,-0.0043702153488993645,237568.0,371.4747636318207,6.810524366684945e-15,0.0,2.4250330924987793,-0.024250322952866554,0.07267001271247864,-0.02425033040344715,7.450580596923828e-09,0.0,-0.03218422830104828,0.3799203038215637,0.6516723414026943,0.0012715216726064682,0.44784975051879883,-0.03091270662844181,0.6437222957611084,2.2421929836273193,0.9972782135009766,,,,,,,
4590840000.0,71.52,-1.1699999570846558,12041169408.0,1776.6620716471841,58.0,-0.01139095425605774,241664.0,373.7802104949951,6.8035854727810374e-15,0.0,2.434999465942383,-0.02435000240802765,0.09303316473960876,-0.024349994957447052,-7.450580596923828e-09,0.0,-0.10722999274730682,0.41786447167396545,0.6844017181707267,-0.06971585750579834,0.5322677493095398,-0.17694583535194397,0.7438204288482666,2.3054468631744385,0.9970569610595703,,,,,,,
4590840000.0,72.69,-1.2999999523162842,12041169408.0,1795.2271030780646,59.0,-0.010216644033789635,245760.0,376.06181597709656,6.565928356572215e-15,0.0,2.4583559036254883,-0.02458355762064457,0.07281678169965744,-0.02458355762064457,0.0,0.0,-0.08232729136943817,0.37267908453941345,0.7570641633499122,-0.18684527277946472,0.6069748401641846,-0.2691725790500641,0.7561174035072327,2.2816054821014404,0.9969625473022461,,,,,,,
4590840000.0,76.83,-0.800000011920929,12041169408.0,1837.5303985246594,60.0,-0.0025263079442083836,249856.0,378.2908947467804,5.811323644522304e-15,0.0,2.513730049133301,-0.025137295946478844,0.07434563338756561,-0.025137299671769142,3.725290298461914e-09,0.0,0.07893180847167969,0.3774862289428711,0.7221811431296649,-0.23716974258422852,0.6296697854995728,-0.15823794901371002,0.7161767482757568,2.229078769683838,0.9973962306976318,,,,,,,
4590840000.0,73.14,-0.5600000023841858,12041169408.0,1842.8562799292115,61.0,-0.0073209479451179504,253952.0,380.5135314464569,5.68295410730002e-15,0.0,2.537099599838257,-0.025370994582772255,0.07897655665874481,-0.025370994582772255,0.0,0.0,0.05014093220233917,0.39430564641952515,0.7443306499909916,-0.3195194602012634,0.6497159600257874,-0.26937854290008545,0.7798188328742981,2.2226366996765137,0.997093915939331,,,,,,,
4590840000.0,71.6,-0.8100000023841858,12041169408.0,1712.311291393547,62.0,-0.006409681402146816,258048.0,382.90561985969543,5.564992910933597e-15,0.0,2.550713300704956,-0.025507129728794098,0.06315354257822037,-0.025507131591439247,1.862645149230957e-09,0.0,0.017624199390411377,0.35500314831733704,0.753393463980226,-0.3075152635574341,0.6043478846549988,-0.2898910641670227,0.7148746252059937,2.3920884132385254,0.9970288276672363,,,,,,,
4625356000.0,70.69,-1.2400000095367432,12041169408.0,1776.9632629183006,63.0,-0.011879075318574905,262144.0,385.2106759548187,5.5268289944621074e-15,0.0,2.5295863151550293,-0.025295861065387726,0.094092458486557,-0.025295862928032875,2.7939677238464355e-09,0.0,0.04671137407422066,0.4313332438468933,0.7632979012910794,-0.4747251570224762,0.7611786127090454,-0.42801380157470703,0.8865675926208496,2.305056095123291,0.9970927238464355,,,,,,,
,,,,,,,,,,,,,,,,,,,,,,,,,,0.0071694799698889256,0.13691900670528412,0.12234880775213242,0.0071694799698889256,0.13691900670528412,0.12234880775213242,
,,,,,,,,,,,,,,,,,,,,,,,,,,0.004558552522212267,0.11047915369272232,0.10759834200143814,0.004558552522212267,0.11047915369272232,0.10759834200143814,
,,,,,,,,,,,,,,,,,,,,,,,,,,0.003431991208344698,0.09854812175035477,0.09515134990215302,0.003431991208344698,0.09854812175035477,0.09515134990215302,
,,,,,,,,,,,,,,,,,,,,,,,,,,0.002737493021413684,0.09116027504205704,0.08920582383871078,0.002737493021413684,0.09116027504205704,0.08920582383871078,
,,,,,,,,,,,,,,,,,,,,,,,,,,0.0024465867318212986,0.0870395228266716,0.085481196641922,0.0024465867318212986,0.0870395228266716,0.085481196641922,
,,,,,,,,,,,,,,,,,,,,,,,,,,0.003256908617913723,0.08579367399215698,0.08339302986860275,0.003256908617913723,0.08579367399215698,0.08339302986860275,
,,,,,,,,,,,,,,,,,,,,,,,,,,,,,,,,-1.63
4627696000.0,71.85,-1.2799999713897705,11990521856.0,16.98985296940488,64.0,-0.007885833270847797,266240.0,626.295752286911,6.062858548538941e-15,0.0,2.492438793182373,-0.02492438443005085,0.07304404675960541,-0.02492438815534115,3.725290298461914e-09,0.0,0.019855305552482605,0.38174527883529663,0.8349626698518559,-0.3477690815925598,0.8797771334648132,-0.327913761138916,0.939685583114624,241.08507633209229,0.9973299503326416,,,,,,,
4627696000.0,74.57,-1.1399999856948853,12041169408.0,1745.3689648684422,65.0,-0.008159767836332321,270336.0,628.6425340175629,6.163472510145596e-15,0.0,2.4534332752227783,-0.024534333497285843,0.07741858065128326,-0.024534331634640694,-1.862645149230957e-09,0.0,0.013350504450500011,0.39331501722335815,0.7697962096446205,-0.31629446148872375,0.7474343180656433,-0.30294397473335266,0.8197554349899292,2.3467817306518555,0.9972946643829346,,,,,,,
4627696000.0,75.02,-0.9599999785423279,12041169408.0,1828.8951434692935,66.0,-0.005627399310469627,274432.0,630.8821375370026,6.87817858224804e-15,0.0,2.4237380027770996,-0.024237381294369698,0.05851386487483978,-0.02423737943172455,-1.862645149230957e-09,0.0,0.040092650800943375,0.3397771418094635,0.8087962869629948,-0.2781738340854645,0.7130023837089539,-0.2380811870098114,0.7770447134971619,2.2396035194396973,0.9971275329589844,,,,,,,
4627696000.0,73.47,-0.7699999809265137,12041169408.0,1800.3523167504043,67.0,-0.005511751398444176,278528.0,633.1572477817535,6.269290642180181e-15,0.0,2.411097764968872,-0.024110987782478333,0.05026121810078621,-0.024110976606607437,-1.1175870895385742e-08,0.0,0.046728380024433136,0.313628613948822,0.7951992613407662,-0.2550933361053467,0.7090771794319153,-0.20836494863033295,0.6930266618728638,2.2751102447509766,0.9972653388977051,,,,,,,
4627696000.0,72.27,-1.059999942779541,12041169408.0,1817.8320720925099,68.0,-0.008888199925422668,282624.0,635.4104812145233,6.415007414162233e-15,0.0,2.4211349487304688,-0.024211343377828598,0.05880165100097656,-0.024211348965764046,5.587935447692871e-09,0.0,0.010299031622707844,0.34282052516937256,0.8403595215180981,-0.29933303594589233,0.7959089279174805,-0.28903400897979736,0.8580158352851868,2.2532334327697754,0.9971067905426025,,,,,,,
4627696000.0,73.64,-0.8100000023841858,12041169408.0,1790.1007698950689,69.0,-0.0028372115921229124,286720.0,637.698620557785,6.770625726737478e-15,0.0,2.417733907699585,-0.024177338927984238,0.05869820713996887,-0.024177338927984238,0.0,0.0,0.07377192378044128,0.33463630080223083,0.747293513444593,-0.19749554991722107,0.692793071269989,-0.12372361868619919,0.6656789779663086,2.2881393432617188,0.997408390045166,,,,,,,
4627696000.0,74.19,-0.6399999856948853,12041169408.0,1822.3327823510288,70.0,-0.006364142522215843,290816.0,639.9462890625,6.945832797811136e-15,0.0,2.389634609222412,-0.023896345868706703,0.06954316794872284,-0.023896345868706703,0.0,0.0,0.006329904776066542,0.37293457984924316,0.7364118059037308,-0.16810360550880432,0.651780903339386,-0.1617737114429474,0.7263897657394409,2.247668504714966,0.9977254867553711,,,,,,,
4627696000.0,76.89,-0.800000011920929,12041169408.0,1788.1159311622166,71.0,-0.004748045466840267,294912.0,642.2369682788849,7.726458362000699e-15,0.0,2.402811288833618,-0.0240281131118536,0.05358056351542473,-0.0240281131118536,0.0,0.0,0.010218501091003418,0.3272351622581482,0.7456545922554845,-0.1102893278002739,0.5292733907699585,-0.10007082670927048,0.6488555073738098,2.2906792163848877,0.9971439838409424,,,,,,,
4627696000.0,75.83,-0.6800000071525574,12041169408.0,1749.2979523079505,72.0,-0.006389043293893337,299008.0,644.57847905159,7.258083023486961e-15,0.0,2.3967199325561523,-0.023967204615473747,0.053818680346012115,-0.0239671990275383,-5.587935447692871e-09,0.0,-0.03714323043823242,0.3260118067264557,0.7797127485340853,-0.14970600605010986,0.5371872186660767,-0.18684923648834229,0.6946061849594116,2.341510772705078,0.997077226638794,,,,,,,
4627696000.0,71.89,-0.8799999952316284,12041169408.0,1800.5453434325343,73.0,-0.005995985586196184,303104.0,646.8533453941345,6.800116025829084e-15,0.0,2.3704276084899902,-0.023704281076788902,0.05046076327562332,-0.023704275488853455,-5.587935447692871e-09,0.0,-0.01063454058021307,0.3175421953201294,0.7641288361103362,-0.13432255387306213,0.5141538977622986,-0.14495711028575897,0.6538287401199341,2.2748663425445557,0.9974579811096191,,,,,,,
4629348000.0,72.31,-0.6100000143051147,12041169408.0,1760.0507226302857,74.0,-0.0019134818576276302,307200.0,649.1805510520935,6.925016116099414e-15,0.0,2.4050135612487793,-0.02405012957751751,0.03328630328178406,-0.024050135165452957,5.587935447692871e-09,0.0,0.00667140819132328,0.2579618990421295,0.7888974751177131,-0.08431494235992432,0.47969886660575867,-0.07764354348182678,0.5614471435546875,2.3272056579589844,0.9972012042999268,,,,,,,
4629348000.0,73.94,-0.36000001430511475,12041169408.0,1831.5318176705787,75.0,-0.002466244390234351,311296.0,651.416930437088,6.999609225566417e-15,0.0,2.4571173191070557,-0.02457117661833763,0.04553204029798508,-0.024571172893047333,-3.725290298461914e-09,0.0,0.0020588021725416183,0.3017980754375458,0.7671763733820944,-0.07724543660879135,0.4966147243976593,-0.07518664002418518,0.625464916229248,2.236379384994507,0.9971048831939697,,,,,,,
4629348000.0,74.03,-0.6200000047683716,12041169408.0,1787.382211499697,76.0,-0.007139415480196476,315392.0,653.7085499763489,7.112366251504909e-15,0.0,2.462043285369873,-0.024620428681373596,0.043619152158498764,-0.024620432406663895,3.725290298461914e-09,0.0,-0.022127430886030197,0.2945672273635864,0.8367880344079288,-0.19354841113090515,0.5833761096000671,-0.21567583084106445,0.7291358113288879,2.2916195392608643,0.9972577095031738,,,,,,,
4629348000.0,71.89,-0.7300000190734863,12041169408.0,1732.7258308624826,77.0,-0.003164194989949465,319488.0,656.072455406189,7.08461067588928e-15,0.0,2.4549808502197266,-0.024549806490540504,0.04992631822824478,-0.024549808353185654,1.862645149230957e-09,0.0,-0.0011150646023452282,0.316031277179718,0.7710321993565896,-0.05892811715602875,0.5171772837638855,-0.060043174773454666,0.6604544520378113,2.363905429840088,0.9971888065338135,,,,,,,
4629348000.0,71.72,-0.4300000071525574,12041169408.0,1735.156640387967,78.0,-0.004411172121763229,323584.0,658.4330492019653,7.173081573164097e-15,0.0,2.4606003761291504,-0.0246060062199831,0.05303315073251724,-0.024606002494692802,-3.725290298461914e-09,0.0,-0.010411280207335949,0.32555150985717773,0.7720336096579468,-0.08258151262998581,0.5390468239784241,-0.09299279004335403,0.6818428635597229,2.360593795776367,0.9973092079162598,,,,,,,
4629348000.0,70.87,-0.4300000071525574,12041169408.0,1798.4499278625563,79.0,-0.0034527990501374006,327680.0,660.7105660438538,7.452372052796363e-15,0.0,2.4604196548461914,-0.024604197591543198,0.04900360852479935,-0.02460419572889805,-9.313225746154785e-10,0.0,-0.0017994595691561699,0.3130940794944763,0.8195375804275231,-0.07455093413591385,0.6227332949638367,-0.0763503909111023,0.7370237112045288,2.2775168418884277,0.9970591068267822,,,,,,,
4629348000.0,72.65,-0.4399999976158142,12041169408.0,1819.137705643277,80.0,-0.0035988972522318363,331776.0,662.9621822834015,7.601558271730369e-15,0.0,2.467205047607422,-0.024672050029039383,0.0449947863817215,-0.024672050029039383,-9.313225746154785e-10,0.0,0.008467568084597588,0.299899697303772,0.8623582860744519,-0.18847991526126862,0.7213544845581055,-0.18001234531402588,0.8083528876304626,2.2516162395477295,0.9973022937774658,,,,,,,
4629348000.0,70.61,-0.3799999952316284,12041169408.0,1813.5947361859348,81.0,-0.0005548095796257257,335872.0,665.2206802368164,8.085546121527898e-15,0.0,2.4307315349578857,-0.024307314306497574,0.041528113186359406,-0.024307314306497574,-9.313225746154785e-10,0.0,0.018411096185445786,0.2876411974430084,0.8553646042171339,-0.06933140754699707,0.7035230398178101,-0.05092030391097069,0.7563343048095703,2.258497953414917,0.9970910549163818,,,,,,,
4629348000.0,72.36,-0.20000000298023224,12041169408.0,1802.0167620302318,82.0,-0.005278133787214756,339968.0,667.4936890602112,7.802786194943678e-15,0.0,2.460944414138794,-0.02460944652557373,0.055594708770513535,-0.024609442800283432,-3.725290298461914e-09,0.0,-0.01601475104689598,0.3331066071987152,0.8571964448326204,-0.14714232087135315,0.8246450424194336,-0.16315706074237823,0.8814826607704163,2.2730088233947754,0.9971678256988525,,,,,,,
4629348000.0,75.09,-0.5,12041169408.0,1801.9557120385718,83.0,-0.0031998157501220703,344064.0,669.766774892807,8.415143581963491e-15,0.0,2.4428768157958984,-0.02442876808345318,0.04891899228096008,-0.02442876808345318,0.0,0.0,-0.00447916379198432,0.31279677152633667,0.8340262112425,-0.0609520822763443,0.7013378739356995,-0.06543125957250595,0.7677900195121765,2.273085832595825,0.997117280960083,,,,,,,
4629348000.0,76.2,-0.49000000953674316,12041169408.0,1822.4087530598242,84.0,-0.004596974700689316,348160.0,672.0143496990204,8.961581476896185e-15,0.0,2.396150588989258,-0.023961499333381653,0.0530291385948658,-0.0239615049213171,4.6566128730773926e-09,0.0,-0.015604496002197266,0.32533153891563416,0.8790716675188397,-0.23933982849121094,0.9206129312515259,-0.2549443244934082,0.9355395436286926,2.247574806213379,0.9970459938049316,,,,,,,
4629348000.0,73.31,-0.7300000190734863,12041169408.0,1815.1940063063153,85.0,-0.0058549814857542515,352256.0,674.2708578109741,8.212180935274205e-15,0.0,2.4250214099884033,-0.02425021305680275,0.07028236985206604,-0.02425021305680275,0.0,0.0,-0.04320978373289108,0.3724668025970459,0.841961196652999,-0.1710311770439148,0.8290246725082397,-0.21424095332622528,0.9369269013404846,2.2565081119537354,0.9970612525939941,,,,,,,
4629348000.0,72.64,-0.9399999976158142,12041169408.0,1802.2386937509468,86.0,-0.008500708267092705,356352.0,676.543586730957,8.468920009718772e-15,0.0,2.420065402984619,-0.024200674146413803,0.05734896659851074,-0.02420065365731716,-2.0489096641540527e-08,0.0,0.038062818348407745,0.3365662097930908,0.9031544248096668,-0.41185539960861206,1.0531562566757202,-0.3737925589084625,1.0815101861953735,2.27272891998291,0.9975576400756836,,,,,,,
4629348000.0,69.74,-0.6299999952316284,12041169408.0,1811.880371111362,87.0,-0.002513803541660309,360448.0,678.8042216300964,7.499209586647737e-15,0.0,2.48051118850708,-0.024805115535855293,0.05198340117931366,-0.024805111810564995,-3.725290298461914e-09,0.0,0.059685781598091125,0.3169052302837372,0.8552956629978684,-0.25417259335517883,0.83892422914505,-0.1944868266582489,0.8330836892127991,2.2606348991394043,0.9974548816680908,,,,,,,
4629348000.0,68.95,-0.20999999344348907,12041169408.0,1782.9327395437151,88.0,0.0002800466609187424,364544.0,681.1015601158142,7.735131979380583e-15,0.0,2.5242507457733154,-0.02524251490831375,0.05395745486021042,-0.025242507457733154,-7.450580596923828e-09,0.0,0.04381993040442467,0.3256080448627472,0.8106577154355781,-0.16273227334022522,0.7472991943359375,-0.11891234666109085,0.7482923865318298,2.2973384857177734,0.997248649597168,,,,,,,
4629348000.0,71.95,0.10999999940395355,12041169408.0,1815.0540103120786,89.0,-0.0011227075010538101,368640.0,683.3582422733307,7.025630077706069e-15,0.0,2.5583930015563965,-0.025583922863006592,0.061601605266332626,-0.02558393031358719,7.450580596923828e-09,0.0,0.010515587404370308,0.3508884310722351,0.7829729728319066,-0.03155435621738434,0.6898943781852722,-0.02103876695036888,0.7532031536102295,2.2566821575164795,0.9974470138549805,,,,,,,
4629348000.0,75.31,-0.009999999776482582,12041169408.0,1803.283111201381,90.0,-0.0004219592083245516,372736.0,685.6296548843384,6.770625726737478e-15,0.0,2.5964467525482178,-0.02596447430551052,0.05024836212396622,-0.025964466854929924,-7.450580596923828e-09,0.0,0.029261240735650063,0.31569740176200867,0.7924981055408958,-0.04854949936270714,0.6613788604736328,-0.019288258627057076,0.6930426359176636,2.2714126110076904,0.9977309703826904,,,,,,,
4629348000.0,77.86,0.05000000074505806,12041169408.0,1742.2069045665944,91.0,0.0004227185854688287,376832.0,687.9806959629059,6.498274141009119e-15,0.0,2.5754141807556152,-0.02575414627790451,0.0443882942199707,-0.025754140689969063,-4.6566128730773926e-09,0.0,0.020074401050806046,0.29731327295303345,0.8085252970986152,-0.02000124379992485,0.626846432685852,7.316283881664276e-05,0.6794517636299133,2.351041078567505,0.9973044395446777,,,,,,,
4629348000.0,78.66,-0.44999998807907104,12041169408.0,1806.4050251668414,92.0,-0.008608447387814522,380928.0,690.2481830120087,6.4965394175331426e-15,0.0,2.5775303840637207,-0.025775296613574028,0.09797780215740204,-0.025775304064154625,7.450580596923828e-09,0.0,-0.06072074547410011,0.43853795528411865,0.697891523442763,-0.14875364303588867,0.7355832457542419,-0.20947439968585968,0.7978582382202148,2.267487049102783,0.9971661567687988,,,,,,,
4629348000.0,76.04,-0.4399999976158142,12041169408.0,1789.5182580167486,93.0,0.001414953381754458,385024.0,692.5370671749115,6.354292092503044e-15,0.0,2.5955398082733154,-0.025955405086278915,0.04985417053103447,-0.02595539763569832,-7.450580596923828e-09,0.0,0.03876804560422897,0.31341564655303955,0.68741563911896,0.0429062694311142,0.5370509028434753,0.08167431503534317,0.560579240322113,2.288884162902832,0.997201681137085,,,,,,,
4629348000.0,73.42,-0.03999999910593033,12041169408.0,1833.5191609547521,94.0,-0.0024116637650877237,389120.0,694.7710225582123,6.91634249871953e-15,0.0,2.5475950241088867,-0.025475941598415375,0.05281206592917442,-0.02547594904899597,7.450580596923828e-09,0.0,-0.0396837517619133,0.3226061761379242,0.7344962551517469,0.02714846096932888,0.5092080235481262,-0.01253529079258442,0.6260908246040344,2.2339553833007812,0.9972615242004395,,,,,,,
4629348000.0,72.14,-0.4099999964237213,12041169408.0,1795.9909355082762,95.0,-0.00440663006156683,393216.0,697.0516576766968,6.746339598073803e-15,0.0,2.5623345375061035,-0.025623347610235214,0.056963205337524414,-0.025623343884944916,-4.190951585769653e-09,0.0,-0.05086001008749008,0.3337167203426361,0.751017719253811,-0.010433529503643513,0.5355331897735596,-0.06129354238510132,0.6687961220741272,2.280635118484497,0.9971919059753418,,,,,,,
,,,,,,,,,,,,,,,,,,,,,,,,,,0.005949974525719881,0.071040578186512,0.05393952876329422,0.005949974525719881,0.071040578186512,0.05393952876329422,
,,,,,,,,,,,,,,,,,,,,,,,,,,0.0028247416485100985,0.04712194576859474,0.04435224458575249,0.0028247416485100985,0.04712194576859474,0.04435224458575249,
,,,,,,,,,,,,,,,,,,,,,,,,,,0.0031093854922801256,0.04466501250863075,0.042890504002571106,0.0031093854922801256,0.04466501250863075,0.042890504002571106,
,,,,,,,,,,,,,,,,,,,,,,,,,,0.0020362338982522488,0.04101862758398056,0.039365701377391815,0.0020362338982522488,0.04101862758398056,0.039365701377391815,
,,,,,,,,,,,,,,,,,,,,,,,,,,0.002139733172953129,0.04010188207030296,0.039297185838222504,0.002139733172953129,0.04010188207030296,0.039297185838222504,
,,,,,,,,,,,,,,,,,,,,,,,,,,0.0020851383451372385,0.03800668194890022,0.037520308047533035,0.0020851383451372385,0.03800668194890022,0.037520308047533035,
,,,,,,,,,,,,,,,,,,,,,,,,,,,,,,,,-1.27
4632076000.0,73.62,-0.38999998569488525,11990521856.0,16.982740444891064,96.0,-0.0027069859206676483,397312.0,938.2377026081085,6.316128176031555e-15,0.0,2.5391223430633545,-0.025391221046447754,0.046974457800388336,-0.025391222909092903,9.313225746154785e-10,0.0,0.017335195094347,0.3060576319694519,0.7254656879449015,-0.0011893361806869507,0.5067608952522278,0.016145853325724602,0.5841237306594849,241.18604493141174,0.9972097873687744,,,,,,,
4632076000.0,72.51,-0.4099999964237213,12041169408.0,1821.6161085530298,97.0,-0.0035681244917213917,401408.0,940.4862554073334,6.645725636467148e-15,0.0,2.508779287338257,-0.025087794288992882,0.03763919323682785,-0.025087792426347733,-1.862645149230957e-09,0.0,-0.010514061897993088,0.27420100569725037,0.8823837622254969,-0.15474005043506622,0.7186592221260071,-0.16525410115718842,0.7995312213897705,2.2485527992248535,0.9972691535949707,,,,,,,
4632076000.0,72.56,-0.38999998569488525,12041169408.0,1777.8334134640759,98.0,-0.0015734969638288021,405504.0,942.7901833057404,7.344819197285801e-15,0.0,2.504456043243408,-0.025044552981853485,0.059811610728502274,-0.025044560432434082,7.450580596923828e-09,0.0,0.04156368970870972,0.34340131282806396,0.7930066277525727,-0.16228920221328735,0.7180235385894775,-0.12072550505399704,0.7547857761383057,2.3039278984069824,0.9972553253173828,,,,,,,
4632076000.0,71.54,-0.3199999928474426,12041169408.0,1769.8106920661503,99.0,-0.005442898720502853,409600.0,945.1045551300049,7.062059270701582e-15,0.0,2.5176339149475098,-0.025176336988806725,0.03618457168340683,-0.025176338851451874,1.862645149230957e-09,0.0,-0.015295855700969696,0.26861274242401123,0.8594637047426189,-0.10127708315849304,0.61783367395401,-0.11657293140888214,0.7165266275405884,2.3143718242645264,0.9969813823699951,,,,,,,
4632076000.0,70.69,-0.3400000035762787,12041169408.0,1807.3120514231534,100.0,-0.0005743126384913921,413696.0,947.3709042072296,6.968384202998834e-15,0.0,2.536020278930664,-0.02536020055413246,0.0311964750289917,-0.02536020241677761,9.313225746154785e-10,0.0,0.020623434334993362,0.2489633560180664,0.875645617313011,-0.05137176439166069,0.6151865124702454,-0.030748331919312477,0.7060002684593201,2.2663490772247314,1.000265121459961,,,,,,,
4632076000.0,72.3,-0.20000000298023224,12041169408.0,1807.8552206320996,101.0,-0.0024461245629936457,417792.0,949.6365723609924,7.239001065251216e-15,0.0,2.4846768379211426,-0.024846768006682396,0.03136534243822098,-0.024846768006682396,0.0,0.0,0.011538912542164326,0.2502255439758301,0.8794241013781877,-0.10379250347614288,0.622883141040802,-0.09225360304117203,0.7206118702888489,2.2656681537628174,0.9976487159729004,,,,,,,
4632076000.0,73.08,-0.10999999940395355,12041169408.0,1732.3786540686756,102.0,0.0005764806410297751,421888.0,952.0009515285492,7.268491364342822e-15,0.0,2.538426399230957,-0.025384265929460526,0.05716785043478012,-0.025384264066815376,-1.862645149230957e-09,0.0,0.028715265914797783,0.3369552493095398,0.7525335570529726,0.005469517782330513,0.5669876337051392,0.034184779971838,0.6773514747619629,2.3643791675567627,0.997199535369873,,,,,,,
4632076000.0,78.61,0.15000000596046448,12041169408.0,1776.1956931785708,103.0,0.003030633321031928,425984.0,954.307003736496,7.015221736850208e-15,0.0,2.555546760559082,-0.025555480271577835,0.04002242535352707,-0.02555546723306179,-1.210719347000122e-08,0.0,0.05710872262716293,0.2771320939064026,0.7786920166359457,0.07381723821163177,0.5152130126953125,0.1309259682893753,0.5890989899635315,2.3060522079467773,0.997323751449585,,,,,,,
4632076000.0,76.55,0.46000000834465027,12041169408.0,1770.605963483396,104.0,0.002601772081106901,430080.0,956.6203360557556,7.712580574192884e-15,0.0,2.5317296981811523,-0.025317301973700523,0.04845954477787018,-0.025317296385765076,-5.587935447692871e-09,0.0,0.02420893684029579,0.31041350960731506,0.8299639815508382,-0.003054436296224594,0.6761334538459778,0.021154504269361496,0.7527835369110107,2.3133323192596436,0.9973750114440918,,,,,,,
4632076000.0,76.58,0.1599999964237213,12041169408.0,1775.917892839802,105.0,0.001013360801152885,434176.0,958.9267489910126,7.082875952413303e-15,0.0,2.553043842315674,-0.025530444458127022,0.047277044504880905,-0.025530437007546425,-7.450580596923828e-09,0.0,0.011361990123987198,0.30732402205467224,0.8107817396726745,0.00748868752270937,0.5835403203964233,0.01885068044066429,0.7065045237541199,2.306412935256958,0.9969997406005859,,,,,,,
4632076000.0,74.87,0.23999999463558197,12041169408.0,1807.9482539801475,106.0,0.00391770526766777,438272.0,961.1923005580902,8.057790545912269e-15,0.0,2.5727667808532715,-0.025727659463882446,0.0618862546980381,-0.025727666914463043,7.450580596923828e-09,0.0,0.020894739776849747,0.3512350022792816,0.728866450139097,0.08223525434732437,0.6156586408615112,0.10312999039888382,0.6745376586914062,2.2655515670776367,0.9972889423370361,,,,,,,
4632076000.0,80.75,0.4399999976158142,12041169408.0,1800.880360883239,107.0,0.002180413343012333,442368.0,963.4667437076569,7.532169332691296e-15,0.0,2.569833278656006,-0.025698332116007805,0.07677319645881653,-0.025698332116007805,0.0,0.0,0.012351682409644127,0.3917030394077301,0.5588901940237072,0.13432447612285614,0.5622987151145935,0.14667615294456482,0.5897712707519531,2.2744431495666504,0.997499942779541,,,,,,,
4632076000.0,87.5,0.0,12041169408.0,1795.8232871342602,108.0,-0.004512917250394821,446464.0,965.7475917339325,8.566064524373473e-15,0.0,2.5703940391540527,-0.02570394240319729,0.09896402060985565,-0.02570394054055214,-1.862645149230957e-09,0.0,-0.11361371725797653,0.4301919937133789,0.7355779453010753,0.09447784721851349,0.6703003644943237,-0.01913587562739849,0.8365916013717651,2.2808480262756348,0.9973223209381104,,,,,,,
4632076000.0,78.6,-0.33000001311302185,12041169408.0,1808.6953410580022,109.0,-0.0017498107627034187,450560.0,968.0122075080872,8.819334151866087e-15,0.0,2.5520238876342773,-0.025520246475934982,0.0981551930308342,-0.025520239025354385,-7.450580596923828e-09,0.0,-0.06170403212308884,0.4388051927089691,0.7030745696914892,0.13251963257789612,0.6424617767333984,0.07081558555364609,0.8052821159362793,2.264615774154663,0.9972879886627197,,,,,,,
4632076000.0,74.92,0.03999999910593033,12041169408.0,1820.2072068464045,110.0,0.0021912145894020796,454656.0,970.2625007629395,8.496675585334401e-15,0.0,2.550490379333496,-0.025504903867840767,0.07499625533819199,-0.025504903867840767,0.0,0.0,0.0023069502785801888,0.3873290717601776,0.6942089531592397,0.15055954456329346,0.6132412552833557,0.15286648273468018,0.7004347443580627,2.250293254852295,0.9975521564483643,,,,,,,
4632076000.0,79.64,0.38999998569488525,12041169408.0,1813.461303734492,111.0,0.005414936691522598,458752.0,972.521164894104,8.940764795184464e-15,0.0,2.5324831008911133,-0.025324836373329163,0.05378139019012451,-0.025324830785393715,-5.587935447692871e-09,0.0,0.011841910891234875,0.32779380679130554,0.6828134569578701,0.1735418289899826,0.5627167224884033,0.18538373708724976,0.5820273160934448,2.258664131164551,0.9971375465393066,,,,,,,
4632076000.0,79.35,0.8600000143051147,12041169408.0,1811.6182328214998,112.0,0.007627743761986494,462848.0,974.7821269035339,8.743006318923108e-15,0.0,2.578360080718994,-0.025783596560359,0.046127889305353165,-0.0257836002856493,3.725290298461914e-09,0.0,0.055474117398262024,0.29866400361061096,0.7233514716359253,0.1830005645751953,0.5678583979606628,0.23847466707229614,0.5678304433822632,2.2609620094299316,0.9972612857818604,,,,,,,
4632076000.0,76.57,0.6499999761581421,12041169408.0,1735.4963409841896,113.0,0.002059481805190444,466944.0,977.142258644104,9.135053824493866e-15,0.0,2.542171001434326,-0.02542170137166977,0.05179864168167114,-0.025421708822250366,7.450580596923828e-09,0.0,-0.02643427811563015,0.32081714272499084,0.754705854532753,0.1298096776008606,0.5918917059898376,0.1033754050731659,0.647759735584259,2.3601317405700684,0.9971952438354492,,,,,,,
4632076000.0,77.0,0.30000001192092896,12041169408.0,1734.7944746678193,114.0,0.003243887796998024,471040.0,979.5033452510834,9.121176036686052e-15,0.0,2.546412944793701,-0.02546413615345955,0.04682818055152893,-0.025464128702878952,-7.450580596923828e-09,0.0,0.012982340529561043,0.3057951331138611,0.7760944440060793,0.08394195139408112,0.555611252784729,0.09692429006099701,0.6462463736534119,2.36108660697937,0.9971146583557129,,,,,,,
4632076000.0,80.44,0.6299999952316284,12041169408.0,1818.1358403338622,115.0,0.006199273280799389,475136.0,981.7562022209167,9.879250195687916e-15,0.0,2.5713210105895996,-0.025713203474879265,0.07411497831344604,-0.025713209062814713,5.587935447692871e-09,0.0,0.014764067716896534,0.3847702145576477,0.613484913014281,0.21040339767932892,0.5024372935295105,0.22516745328903198,0.6188967823982239,2.252856969833374,0.997307300567627,,,,,,,
4632076000.0,81.8,0.8500000238418579,12041169408.0,1732.8602310491176,116.0,0.006506958976387978,479232.0,984.1199243068695,9.815065427076775e-15,0.0,2.547193765640259,-0.025471944361925125,0.047042034566402435,-0.025471936911344528,-6.51925802230835e-09,0.0,0.025827709585428238,0.3056792616844177,0.6583894301030736,0.2741694748401642,0.4533548951148987,0.2999971807003021,0.5229983925819397,2.363722085952759,0.9973330497741699,,,,,,,
4632076000.0,86.97,0.8399999737739563,12041169408.0,1831.5464621459748,117.0,0.005781134590506554,483328.0,986.3562858104706,1.0720591081536668e-14,0.0,2.539991855621338,-0.02539992704987526,0.0674319863319397,-0.025399917736649513,-8.381903171539307e-09,0.0,0.010629719123244286,0.36712926626205444,0.46698307201585765,0.23423607647418976,0.4341491162776947,0.2448657900094986,0.5028616189956665,2.236361503601074,0.9970159530639648,,,,,,,
4632076000.0,82.81,0.699999988079071,12041169408.0,1734.9221878444246,118.0,0.003860550932586193,487424.0,988.7171986103058,1.1386724896311762e-14,0.0,2.5542280673980713,-0.02554227225482464,0.073173388838768,-0.025542279705405235,7.450580596923828e-09,0.0,0.005434736609458923,0.3825610876083374,0.5688893720953281,0.2274690717458725,0.42512208223342896,0.23290379345417023,0.5826481580734253,2.360912799835205,0.997164249420166,,,,,,,
4632076000.0,81.79,0.550000011920929,12041169408.0,1759.6973772729768,119.0,0.004612451884895563,491520.0,991.0448715686798,1.1863773852205384e-14,0.0,2.5436477661132812,-0.025436483323574066,0.0723138377070427,-0.02543647773563862,-5.587935447692871e-09,0.0,-0.009216486476361752,0.3802341818809509,0.4584507657633089,0.2358061671257019,0.3831018805503845,0.22658967971801758,0.5166925191879272,2.3276729583740234,0.9968080520629883,,,,,,,
4632076000.0,87.93,0.7300000190734863,12041169408.0,1808.390340764176,120.0,0.006251515354961157,495616.0,993.3098692893982,1.1220191442617988e-14,0.0,2.549393653869629,-0.025493936613202095,0.09309297055006027,-0.025493936613202095,0.0,0.0,-0.012970084324479103,0.43135035037994385,0.4859136623062962,0.34019407629966736,0.3698786795139313,0.3272240161895752,0.601606011390686,2.264997720718384,0.9970376491546631,,,,,,,
4632076000.0,90.07,0.9200000166893005,12041169408.0,1817.3742068629776,121.0,0.006110390182584524,499712.0,995.5636703968048,1.1993878112903644e-14,0.0,2.5484609603881836,-0.025484608486294746,0.07641632854938507,-0.025484608486294746,0.0,0.0,0.008236363530158997,0.39089909195899963,0.4262442447449992,0.31344544887542725,0.4112575650215149,0.32168179750442505,0.5160611271858215,2.253801107406616,0.9973311424255371,,,,,,,
4632076000.0,82.1,0.8799999952316284,12041169408.0,1816.9225290273564,122.0,0.007764758542180061,503808.0,997.8180317878723,1.321338871651534e-14,0.0,2.505903720855713,-0.025059036910533905,0.04619545489549637,-0.025059036910533905,9.313225746154785e-10,0.0,-0.014532801695168018,0.3036482036113739,0.5725416763940832,0.3201853632926941,0.40116989612579346,0.30565255880355835,0.46443378925323486,2.254361391067505,0.9972984790802002,,,,,,,
4632076000.0,79.37,0.8899999856948853,12041169408.0,1783.5848505426532,123.0,0.006284535862505436,507904.0,1000.1145303249359,1.3463188897056e-14,0.0,2.4969072341918945,-0.02496907114982605,0.0747765302658081,-0.02496907114982605,0.0,0.0,-0.02114960178732872,0.3861892819404602,0.44854283234409564,0.37114596366882324,0.428371787071228,0.3499963581562042,0.5200490951538086,2.2964985370635986,0.9972069263458252,,,,,,,
4632076000.0,82.39,0.8600000143051147,12041169408.0,1762.2587347870676,124.0,0.006148407235741615,512000.0,1002.4388201236725,1.3135326160096383e-14,0.0,2.5121519565582275,-0.025121523067355156,0.054665978997945786,-0.025121519342064857,-3.725290298461914e-09,0.0,0.003233077935874462,0.33067837357521057,0.4686680770076137,0.33224424719810486,0.3545042872428894,0.3354772925376892,0.4536520540714264,2.3242897987365723,0.9972550868988037,,,,,,,
4632076000.0,81.88,0.8999999761581421,12041169408.0,1820.4735729969366,125.0,0.007810357492417097,516096.0,1004.688784122467,1.2788381464901022e-14,0.0,2.5090341567993164,-0.02509034425020218,0.06822517514228821,-0.02509034052491188,-3.725290298461914e-09,0.0,0.03414223715662956,0.3678555488586426,0.42786549015640685,0.3295130133628845,0.3414934277534485,0.3636552691459656,0.48632681369781494,2.2499639987945557,0.9973666667938232,,,,,,,
4632076000.0,90.66,1.0299999713897705,12041169408.0,1815.2830012879308,126.0,0.007669768761843443,520192.0,1006.9451816082001,1.3393799958016928e-14,0.0,2.5271477699279785,-0.02527148835361004,0.06733693182468414,-0.025271477177739143,-1.1175870895385742e-08,0.0,0.03353101387619972,0.3654889166355133,0.39197327835529916,0.2820647060871124,0.3445154130458832,0.31559574604034424,0.46871936321258545,2.2563974857330322,0.9971573352813721,,,,,,,
4632076000.0,90.16,1.190000057220459,12041169408.0,1796.0525208228157,127.0,0.007535332348197699,524288.0,1009.2257385253906,1.309889696710087e-14,0.0,2.4867374897003174,-0.024867378175258636,0.04616224020719528,-0.024867374449968338,-3.725290298461914e-09,0.0,0.016766609624028206,0.30342352390289307,0.5435256286737427,0.3146325945854187,0.367744505405426,0.33139920234680176,0.4490979313850403,2.2805569171905518,0.9972047805786133,,,,,,,
,,,,,,,,,,,,,,,,,,,,,,,,,,0.017459630966186523,0.08577550947666168,0.07131559401750565,0.017459630966186523,0.08577550947666168,0.07131559401750565,
,,,,,,,,,,,,,,,,,,,,,,,,,,0.0072398497723042965,0.06539943069219589,0.061471570283174515,0.0072398497723042965,0.06539943069219589,0.061471570283174515,
,,,,,,,,,,,,,,,,,,,,,,,,,,0.006558611523360014,0.05993884801864624,0.05704120174050331,0.006558611523360014,0.05993884801864624,0.05704120174050331,
,,,,,,,,,,,,,,,,,,,,,,,,,,0.0050279367715120316,0.056312281638383865,0.0533263199031353,0.0050279367715120316,0.056312281638383865,0.0533263199031353,
,,,,,,,,,,,,,,,,,,,,,,,,,,0.005035142879933119,0.05422421544790268,0.0505308173596859,0.005035142879933119,0.05422421544790268,0.0505308173596859,
,,,,,,,,,,,,,,,,,,,,,,,,,,0.004637894220650196,0.05004621297121048,0.04786883294582367,0.004637894220650196,0.05004621297121048,0.04786883294582367,
,,,,,,,,,,,,,,,,,,,,,,,,,,,,,,,,0.58
4632660000.0,83.78,1.1799999475479126,11990521856.0,17.0044208851689,128.0,0.00966387428343296,528384.0,1250.1042740345001,1.2026837858947204e-14,0.0,2.4298603534698486,-0.024298613891005516,0.037745989859104156,-0.02429860271513462,-1.1175870895385742e-08,0.0,0.0617372989654541,0.26776477694511414,0.6329874841317926,0.2881245017051697,0.41520896553993225,0.3498618006706238,0.44199061393737793,240.8785355091095,0.997175931930542,,,,,,,
4632660000.0,82.1,1.25,12041169408.0,1840.5382366159552,129.0,0.009525974281132221,532480.0,1252.3297100067139,1.1253151188661548e-14,0.0,2.4246644973754883,-0.024246640503406525,0.053099870681762695,-0.024246644228696823,2.7939677238464355e-09,0.0,0.03641236945986748,0.32388192415237427,0.7575328008041448,0.20601686835289001,0.5295418500900269,0.2424292266368866,0.6577489972114563,2.225435972213745,0.9972093105316162,,,,,,,
4632660000.0,79.89,1.0499999523162842,12041169408.0,1819.0795349346931,130.0,0.006357891485095024,536576.0,1254.5813982486725,1.2011225347663412e-14,0.0,2.3899636268615723,-0.023899635300040245,0.07762783765792847,-0.023899635300040245,0.0,0.0,0.014879513531923294,0.3937920033931732,0.5514531279972308,0.17648722231388092,0.528868556022644,0.1913667470216751,0.5879806280136108,2.251688241958618,0.9984900951385498,,,,,,,
4632660000.0,77.98,0.8199999928474426,12041169408.0,1737.818731987569,131.0,0.0069713653065264225,540672.0,1256.9383759498596,1.1728465421079193e-14,0.0,2.4070286750793457,-0.024070288985967636,0.06454814225435257,-0.024070287123322487,-1.862645149230957e-09,0.0,0.005337723530828953,0.35930392146110535,0.6264843984298153,0.3083154857158661,0.4729057550430298,0.31365320086479187,0.5879055857658386,2.356977701187134,0.9974982738494873,,,,,,,
4632660000.0,78.77,1.0,12041169408.0,1800.9785304532274,132.0,0.008034689351916313,544768.0,1259.2126951217651,1.1626116735996561e-14,0.0,2.376244068145752,-0.023762444034218788,0.08894713222980499,-0.02376244030892849,-3.725290298461914e-09,0.0,0.015907835215330124,0.4215264916419983,0.5814156822190182,0.30405718088150024,0.5491578578948975,0.3199650049209595,0.6515284776687622,2.2743191719055176,0.9970757961273193,,,,,,,
4632660000.0,83.63,1.0199999809265137,12041169408.0,1762.0505156447277,133.0,0.00409170426428318,548864.0,1261.5372595787048,1.132254012770062e-14,0.0,2.3905491828918457,-0.02390548400580883,0.1174914538860321,-0.023905491456389427,7.450580596923828e-09,0.0,-0.028296053409576416,0.4839828908443451,0.46790501168639387,0.36204084753990173,0.47828996181488037,0.3337447941303253,0.6634916067123413,2.3245644569396973,0.9971959590911865,,,,,,,
4632660000.0,80.46,0.36000001430511475,12041169408.0,1801.6134928664792,134.0,0.00045524374581873417,552960.0,1263.8107771873474,1.2411946470614055e-14,0.0,2.3946728706359863,-0.02394670620560646,0.10149535536766052,-0.02394672855734825,2.1420419216156006e-08,0.0,-0.096620574593544,0.44011640548706055,0.5603589407906636,0.34148627519607544,0.4401858150959015,0.24486568570137024,0.6637712121009827,2.273517608642578,0.9972021579742432,,,,,,,
4632660000.0,79.77,0.36000001430511475,12041169408.0,1790.7728821968926,135.0,0.0074388994835317135,557056.0,1266.0980577468872,1.2021633688519273e-14,0.0,2.3763182163238525,-0.02376316301524639,0.11020006239414215,-0.023763181641697884,1.862645149230957e-08,0.0,-0.00132716353982687,0.4695234000682831,0.37876067483461084,0.3616481423377991,0.4200519919395447,0.3603209853172302,0.595700204372406,2.287280559539795,0.9973945617675781,,,,,,,
4632660000.0,83.62,0.6899999976158142,12041169408.0,1815.1466353813867,136.0,0.0037968107499182224,561152.0,1268.35462474823,1.3379922170209113e-14,0.0,2.3446264266967773,-0.023446261882781982,0.1630929708480835,-0.02344626374542713,9.313225746154785e-10,0.0,-0.08016186952590942,0.5655423402786255,0.450036891083586,0.35433289408683777,0.460009902715683,0.27417099475860596,0.762602686882019,2.2565670013427734,0.9971158504486084,,,,,,,
4632660000.0,80.63,0.8700000047683716,12041169408.0,1814.040738301196,137.0,0.009276325814425945,565248.0,1270.6125674247742,1.3194306758279595e-14,0.0,2.394373893737793,-0.02394373156130314,0.06389020383358002,-0.023943739011883736,7.450580596923828e-09,0.0,0.05973010137677193,0.35248130559921265,0.6022934743154795,0.3375154435634613,0.37206846475601196,0.3972455561161041,0.5589264631271362,2.2579426765441895,0.9974260330200195,,,,,,,
4632660000.0,82.58,0.9900000095367432,12041169408.0,1819.642907082797,138.0,0.005937351379543543,569344.0,1272.8635585308075,1.4651474478100113e-14,0.0,2.3067550659179688,-0.023067550733685493,0.08271495997905731,-0.023067550733685493,0.0,0.0,0.011257519945502281,0.40662458539009094,0.5355659283007587,0.2826116681098938,0.3900110125541687,0.29386913776397705,0.5966663956642151,2.250991106033325,0.9972548484802246,,,,,,,
4632660000.0,88.09,1.159999966621399,12041169408.0,1793.868638113379,139.0,0.010672790929675102,573440.0,1275.1468918323517,1.391421700080997e-14,0.0,2.35805082321167,-0.023580502718687057,0.040641821920871735,-0.023580508306622505,5.587935447692871e-09,0.0,0.06219830363988876,0.278269499540329,0.6648207021118183,0.34342649579048157,0.38041210174560547,0.4056248068809509,0.48064786195755005,2.2833333015441895,0.9972033500671387,,,,,,,
4632660000.0,86.29,1.2400000095367432,12041169408.0,1826.0249635881685,140.0,0.009009568952023983,577536.0,1277.3900156021118,1.5333220804158998e-14,0.0,2.3647406101226807,-0.023647401481866837,0.06879865378141403,-0.023647405207157135,3.725290298461914e-09,0.0,0.058929167687892914,0.3662750720977783,0.5230028798186941,0.38456079363822937,0.37534940242767334,0.4434899687767029,0.5303339958190918,2.243123769760132,0.9971928596496582,,,,,,,
4632660000.0,91.87,1.6200000047683716,12041169408.0,1737.2091375065095,141.0,0.012997796759009361,581632.0,1279.7478203773499,1.6292522886374172e-14,0.0,2.2930374145507812,-0.022930379956960678,0.04620514065027237,-0.02293037436902523,-5.587935447692871e-09,0.0,0.08587858825922012,0.2916434705257416,0.6510307718868862,0.39403006434440613,0.38028228282928467,0.47990864515304565,0.493694931268692,2.357804775238037,0.9971411228179932,,,,,,,
4632660000.0,92.08,1.690000057220459,12041169408.0,1746.084561954052,142.0,0.011024244129657745,585728.0,1282.0936403274536,1.658742587729023e-14,0.0,2.2873988151550293,-0.02287399396300316,0.03682877868413925,-0.02287398837506771,-4.6566128730773926e-09,0.0,0.056728795170784,0.2654366195201874,0.7557403301814674,0.3938957154750824,0.4505864679813385,0.4506244957447052,0.5370749831199646,2.3458199501037598,0.9971268177032471,,,,,,,
4632660000.0,85.45,1.559999942779541,12041169408.0,1769.8518972946506,143.0,0.011952404864132404,589824.0,1284.4079582691193,1.826663820203578e-14,0.0,2.2951231002807617,-0.022951222956180573,0.06407524645328522,-0.02295123040676117,7.450580596923828e-09,0.0,0.0658818930387497,0.3519095182418823,0.678038065068776,0.48941153287887573,0.47083044052124023,0.5552934408187866,0.6201956868171692,2.3143179416656494,0.9973306655883789,,,,,,,
4632660000.0,90.66,1.75,12041169408.0,1769.966589205141,144.0,0.012268412858247757,593920.0,1286.7221262454987,1.7106108196607295e-14,0.0,2.299450397491455,-0.02299451269209385,0.04458657652139664,-0.022994503378868103,-9.313225746154785e-09,0.0,0.04354395344853401,0.2954629957675934,0.7853397984095303,0.5633729696273804,0.5452166795730591,0.6069168448448181,0.6377160549163818,2.3141679763793945,0.9972035884857178,,,,,,,
4632660000.0,94.16,1.6299999952316284,12041169408.0,1725.0679774337702,145.0,0.009979496710002422,598016.0,1289.0965254306793,1.8403681356637946e-14,0.0,2.259441614151001,-0.022594409063458443,0.07141774147748947,-0.02259441651403904,7.450580596923828e-09,0.0,0.01071295514702797,0.3778300881385803,0.7261280665548,0.7048925161361694,0.6159143447875977,0.7156054973602295,0.7219760417938232,2.374399185180664,0.9972972869873047,,,,,,,
4632660000.0,87.63,1.3300000429153442,12041169408.0,1774.867884357902,146.0,0.00907228421419859,602112.0,1291.4043028354645,1.8197249262996706e-14,0.0,2.2600760459899902,-0.022600749507546425,0.08382314443588257,-0.02260076068341732,1.1175870895385742e-08,0.0,-0.053452856838703156,0.405991792678833,0.6621291553655193,0.6529492139816284,0.6939489245414734,0.5994963645935059,0.6984605193138123,2.3077774047851562,0.9973554611206055,,,,,,,
4632660000.0,86.35,1.5700000524520874,12041169408.0,1770.9372333008007,147.0,0.011542628519237041,606208.0,1293.717202425003,1.6601303665098044e-14,0.0,2.308401584625244,-0.023084012791514397,0.0877084881067276,-0.023084014654159546,1.862645149230957e-09,0.0,-0.05653057619929314,0.41504618525505066,0.6849346326013039,0.908882737159729,0.6644106507301331,0.8523521423339844,0.7394283413887024,2.312899589538574,0.9971961975097656,,,,,,,
4632660000.0,90.61,1.4800000190734863,12041169408.0,1760.5241753679888,148.0,0.008781651966273785,610304.0,1296.043782234192,1.7034984534092246e-14,0.0,2.377264976501465,-0.023772630840539932,0.12008289992809296,-0.023772649466991425,1.862645149230957e-08,0.0,-0.06582428514957428,0.48568564653396606,0.6531717951846545,0.8745614290237427,0.6378149390220642,0.8087371587753296,0.8247038722038269,2.3265798091888428,0.9973764419555664,,,,,,,
4632660000.0,89.16,1.2100000381469727,12041169408.0,1764.6359521120582,149.0,0.009235138073563576,614400.0,1298.3649408817291,1.6096499133588793e-14,0.0,2.3583669662475586,-0.023583656176924706,0.11757402122020721,-0.02358366921544075,1.30385160446167e-08,0.0,-0.012160356156527996,0.48482730984687805,0.6540232086117057,0.7041894197463989,0.6694235801696777,0.6920290589332581,0.8242588043212891,2.3211586475372314,0.9972906112670898,,,,,,,
4632660000.0,90.22,1.149999976158142,12041169408.0,1781.393851137384,150.0,0.0076921721920371056,618496.0,1300.6642639636993,1.6072213004925118e-14,0.0,2.373702049255371,-0.023737017065286636,0.14261168241500854,-0.023737020790576935,3.725290298461914e-09,0.0,-0.06459978967905045,0.5302064418792725,0.5984451192511238,0.6602436304092407,0.669539213180542,0.5956437587738037,0.8367052674293518,2.299323081970215,0.9972896575927734,,,,,,,
4632660000.0,86.99,1.3799999952316284,12041169408.0,1832.867184503598,151.0,0.010931584052741528,622592.0,1302.8990139961243,1.5910883721659275e-14,0.0,2.3875555992126465,-0.023875556886196136,0.07625987380743027,-0.023875555023550987,-2.7939677238464355e-09,0.0,-0.021778443828225136,0.38997769355773926,0.7060902063033387,0.6617727875709534,0.5553523302078247,0.6399943232536316,0.7193374633789062,2.2347500324249268,0.9973206520080566,,,,,,,
4632660000.0,86.71,1.6100000143051147,12041169408.0,1789.658816761918,152.0,0.013093946501612663,626688.0,1305.1877183914185,1.4868314912597214e-14,0.0,2.4169418811798096,-0.024169407784938812,0.05409630015492439,-0.024169418960809708,1.1175870895385742e-08,0.0,-0.016665345057845116,0.32854411005973816,0.7343561099879805,0.5907295942306519,0.49481168389320374,0.5740642547607422,0.6374464631080627,2.2887043952941895,0.997122049331665,,,,,,,
4632660000.0,89.06,1.940000057220459,12041169408.0,1799.8845450133808,153.0,0.014493047259747982,630784.0,1307.4634199142456,1.4882192700405028e-14,0.0,2.384977340698242,-0.02384975552558899,0.05882604420185089,-0.023849772289395332,1.6763806343078613e-08,0.0,0.11283552646636963,0.3239534795284271,0.6538727777579669,0.5604180097579956,0.48835811018943787,0.6732535362243652,0.5506362318992615,2.2757015228271484,0.9972796440124512,,,,,,,
4632660000.0,91.8,1.9800000190734863,12041169408.0,1813.9917037228504,154.0,0.011728793382644653,634880.0,1309.721423625946,1.6301196503754056e-14,0.0,2.3421268463134766,-0.023421261459589005,0.08205907791852951,-0.023421267047524452,5.587935447692871e-09,0.0,0.04878808930516243,0.4022156000137329,0.5692796045128052,0.46822500228881836,0.49838417768478394,0.5170130729675293,0.6128597855567932,2.2580037117004395,0.9972147941589355,,,,,,,
4632660000.0,89.04,1.4600000381469727,12041169408.0,1742.0650446207299,155.0,0.00788283534348011,638976.0,1312.0726561546326,1.6292522886374172e-14,0.0,2.361440420150757,-0.023614397272467613,0.08943641930818558,-0.02361440286040306,5.587935447692871e-09,0.0,-0.009986478835344315,0.4228673279285431,0.5526367698205853,0.5016789436340332,0.4626956284046173,0.4916924238204956,0.6322283744812012,2.3512325286865234,0.9974889755249023,,,,,,,
4632660000.0,86.56,1.4800000190734863,12041169408.0,1727.8069089671146,156.0,0.012682334519922733,643072.0,1314.443291425705,1.6502424426967366e-14,0.0,2.3545775413513184,-0.0235457681119442,0.04516571760177612,-0.023545775562524796,8.381903171539307e-09,0.0,0.06741777807474136,0.2929287254810333,0.7361516354992601,0.5324842929840088,0.4376600980758667,0.5999020338058472,0.5702754259109497,2.3706352710723877,0.997427225112915,,,,,,,
4632660000.0,97.05,1.9900000095367432,12041169408.0,1756.0334912276362,157.0,0.01623876765370369,647168.0,1316.7758209705353,1.9160020792163834e-14,0.0,2.3032875061035156,-0.02303287759423256,0.06632416695356369,-0.02303287386894226,-3.725290298461914e-09,0.0,0.06768223643302917,0.35790881514549255,0.703690131442323,0.6277128458023071,0.5170324444770813,0.6953949928283691,0.6575053334236145,2.3325295448303223,0.997352123260498,,,,,,,
4632660000.0,98.32,2.1600000858306885,12041169408.0,1755.1241161100065,158.0,0.012994399294257164,651264.0,1319.109559059143,2.2037927038809357e-14,0.0,2.250757932662964,-0.022507578134536743,0.06066548824310303,-0.022507578134536743,0.0,0.0,0.05110231414437294,0.34459906816482544,0.7194991054794888,0.6093716621398926,0.5354719758033752,0.6604740023612976,0.6506492495536804,2.333738088607788,0.9973556995391846,,,,,,,
4632660000.0,94.51,2.0999999046325684,12041169408.0,1789.00784638991,159.0,0.012218892574310303,655360.0,1321.399096250534,2.185231162687984e-14,0.0,2.2811954021453857,-0.022811949253082275,0.08575980365276337,-0.022811952978372574,3.725290298461914e-09,0.0,-0.015295284800231457,0.4139172434806824,0.71199420605861,0.735081136226654,0.6139573454856873,0.7197858095169067,0.7712814807891846,2.289537191390991,0.9987597465515137,,,,,,,
,,,,,,,,,,,,,,,,,,,,,,,,,,0.04165656492114067,0.11275393515825272,0.08899837732315063,0.04165656492114067,0.11275393515825272,0.08899837732315063,
,,,,,,,,,,,,,,,,,,,,,,,,,,0.015561950393021107,0.08006525784730911,0.07515710592269897,0.015561950393021107,0.08006525784730911,0.07515710592269897,
,,,,,,,,,,,,,,,,,,,,,,,,,,0.010114259086549282,0.07129395753145218,0.06643598526716232,0.010114259086549282,0.07129395753145218,0.06643598526716232,
,,,,,,,,,,,,,,,,,,,,,,,,,,0.008614868856966496,0.0674084797501564,0.06235640123486519,0.008614868856966496,0.0674084797501564,0.06235640123486519,
,,,,,,,,,,,,,,,,,,,,,,,,,,0.007519114762544632,0.0637606829404831,0.05792425945401192,0.007519114762544632,0.0637606829404831,0.05792425945401192,
,,,,,,,,,,,,,,,,,,,,,,,,,,0.008344847708940506,0.06010584533214569,0.05366995185613632,0.008344847708940506,0.06010584533214569,0.05366995185613632,
,,,,,,,,,,,,,,,,,,,,,,,,,,,,,,,,1.12
4633116000.0,93.57,2.140000104904175,11990521856.0,16.978884239583223,160.0,0.01640450209379196,659456.0,1562.6399188041687,1.5990681001554208e-14,0.0,2.279719829559326,-0.02279721200466156,0.04867496341466904,-0.022797197103500366,-1.4901161193847656e-08,0.0,0.07422462850809097,0.3030892014503479,0.772251020455714,0.6557043790817261,0.55987948179245,0.7299289703369141,0.6351001858711243,241.24082255363464,0.9972341060638428,,,,,,,
4633116000.0,97.92,2.490000009536743,12041169408.0,1829.0705816882662,161.0,0.018407471477985382,663552.0,1564.8793075084686,1.7470400126562424e-14,0.0,2.206393003463745,-0.022063909098505974,0.09150336682796478,-0.022063929587602615,2.0489096641540527e-08,0.0,0.08491343259811401,0.4193320572376251,0.7012284333354482,0.657153308391571,0.6253925561904907,0.7420667409896851,0.767164409160614,2.2393887042999268,0.9972262382507324,,,,,,,
4633116000.0,97.03,2.6500000953674316,12041169408.0,1822.9478823932877,162.0,0.015780484303832054,667648.0,1567.1262176036835,1.769071000801148e-14,0.0,2.25301456451416,-0.022530140355229378,0.06044251471757889,-0.022530145943164825,5.587935447692871e-09,0.0,0.0626312866806984,0.3420393466949463,0.7340368959947662,0.7089265584945679,0.6083645224571228,0.7715578675270081,0.6632319688796997,2.2469100952148438,0.9973773956298828,,,,,,,
4633116000.0,97.5,2.3499999046325684,12041169408.0,1831.8351037297855,163.0,0.013313053175807,671744.0,1569.3622267246246,1.730907084329658e-14,0.0,2.232910394668579,-0.022329101338982582,0.053301289677619934,-0.02232910320162773,1.862645149230957e-09,0.0,0.012882501818239689,0.32628607749938965,0.7408514397300021,0.7109083533287048,0.6002386808395386,0.7237908840179443,0.640950083732605,2.236009120941162,0.9971663951873779,,,,,,,
4633116000.0,100.38,2.299999952316284,12041169408.0,1719.343652476169,164.0,0.01548940408974886,675840.0,1571.7445311546326,1.936818760928105e-14,0.0,2.2208809852600098,-0.022208815440535545,0.039871178567409515,-0.022208809852600098,-5.587935447692871e-09,0.0,0.0020486111752688885,0.28241392970085144,0.8168581640450061,0.815590500831604,0.628465473651886,0.8176391124725342,0.6599215865135193,2.3823044300079346,0.9970588684082031,,,,,,,
4633116000.0,97.37,2.309999942779541,12041169408.0,1766.3473903303773,165.0,0.01517912745475769,679936.0,1574.0634407997131,1.8393273015782086e-14,0.0,2.199920892715454,-0.02199920453131199,0.09016022086143494,-0.021999208256602287,3.725290298461914e-09,0.0,0.014939980581402779,0.4244304597377777,0.750078831640568,0.8971566557884216,0.760405421257019,0.9120966196060181,0.848994791507721,2.3189096450805664,0.9971599578857422,,,,,,,
4633116000.0,92.18,1.9500000476837158,12041169408.0,1825.3430070874422,166.0,0.01116146333515644,684032.0,1576.3074026107788,1.7600504387260685e-14,0.0,2.194650888442993,-0.02194652333855629,0.08852847665548325,-0.021946508437395096,-1.4901161193847656e-08,0.0,-0.08869310468435287,0.4113779366016388,0.7614533474709715,0.7887057065963745,0.7740982174873352,0.7000125646591187,0.8422757983207703,2.243961811065674,0.9972660541534424,,,,,,,
4633116000.0,91.16,1.7599999904632568,12041169408.0,1749.0904694918324,167.0,0.0134894959628582,688128.0,1578.6491911411285,1.7475604296990355e-14,0.0,2.1819024085998535,-0.02181902341544628,0.09143733978271484,-0.02181902341544628,0.0,0.0,0.033355556428432465,0.4263876974582672,0.7733598487023541,0.9919247627258301,0.8052405714988708,1.025280237197876,0.8956456780433655,2.3417885303497314,0.9974133968353271,,,,,,,
4633116000.0,97.83,2.049999952316284,12041169408.0,1757.4689864206355,168.0,0.01641886681318283,692224.0,1580.9798154830933,1.749989042565403e-14,0.0,2.232703447341919,-0.02232702262699604,0.08215173333883286,-0.022327033802866936,1.1175870895385742e-08,0.0,0.026545986533164978,0.4045228660106659,0.7906099414696584,1.1274032592773438,0.754133939743042,1.1539491415023804,0.8840259313583374,2.3306243419647217,0.9972014427185059,,,,,,,
4633116000.0,103.69,2.5899999141693115,12041169408.0,1742.1307601791711,169.0,0.016415774822235107,696320.0,1583.3309593200684,1.7350704206720025e-14,0.0,2.2208468914031982,-0.02220846898853779,0.08752837777137756,-0.02220846898853779,0.0,0.0,-0.03437284380197525,0.41703444719314575,0.7532528203893039,1.2107822895050049,0.7459531426429749,1.1764094829559326,0.8395487666130066,2.3511438369750977,0.9976739883422852,,,,,,,
4633116000.0,109.77,2.880000114440918,12041169408.0,1692.8587995233945,170.0,0.014672508463263512,700416.0,1585.7505350112915,1.7976939381547652e-14,0.0,2.201658248901367,-0.02201656997203827,0.1828296184539795,-0.022016581147909164,1.210719347000122e-08,0.0,0.0014877170324325562,0.6047696471214294,0.6222806696252435,1.199967384338379,0.8155898451805115,1.2014551162719727,0.9840232729911804,2.4195756912231445,0.9975576400756836,,,,,,,
4633116000.0,103.15,2.319999933242798,12041169408.0,1687.7891634661794,171.0,0.013320292346179485,704512.0,1588.1773784160614,1.7595300216832754e-14,0.0,2.238151788711548,-0.02238151803612709,0.09039375185966492,-0.02238151803612709,0.0,0.0,-0.07349169254302979,0.4188428223133087,0.7825000265474097,1.2401704788208008,0.7577905058860779,1.166678786277771,0.8980932831764221,2.4268434047698975,0.9974415302276611,,,,,,,
4633116000.0,97.86,2.0899999141693115,12041169408.0,1828.1536512060586,172.0,0.01594901829957962,708608.0,1590.4178903102875,1.7643872474160105e-14,0.0,2.228869915008545,-0.022288717329502106,0.10242049396038055,-0.022288698703050613,-1.862645149230957e-08,0.0,-0.11156189441680908,0.43868201971054077,0.80088345728142,1.2475991249084473,0.885886013507843,1.1360373497009277,0.9830965399742126,2.240511894226074,0.9971504211425781,,,,,,,
4633116000.0,84.0,1.690000057220459,12041169408.0,1717.502926075432,173.0,0.007741574663668871,712704.0,1592.802747964859,1.9389004290992773e-14,0.0,2.1838741302490234,-0.02183873951435089,0.14059989154338837,-0.02183874137699604,1.862645149230957e-09,0.0,-0.19955207407474518,0.4913630783557892,0.7072968860401228,0.9722145795822144,0.7935936450958252,0.7726624608039856,0.9082154631614685,2.384857654571533,0.9972224235534668,,,,,,,
4633116000.0,83.3,1.5700000524520874,12041169408.0,1816.7955230771802,174.0,0.012400120496749878,716800.0,1595.0572669506073,1.7588361322928847e-14,0.0,2.188418388366699,-0.021884175017476082,0.05476359277963638,-0.02188418246805668,7.450580596923828e-09,0.0,-0.03775984048843384,0.3288278877735138,0.7955028411691979,0.9955859780311584,0.7077106237411499,0.9578261375427246,0.7271516919136047,2.254518985748291,0.9973998069763184,,,,,,,
4633116000.0,90.82,1.590000033378601,12041169408.0,1746.8169087063625,175.0,0.012563180178403854,720896.0,1597.4021034240723,1.6958656701149266e-14,0.0,2.189150333404541,-0.0218915194272995,0.06040129438042641,-0.021891502663493156,-1.6763806343078613e-08,0.0,-0.05059276521205902,0.3439067602157593,0.7982018826595444,0.8640183210372925,0.6920871138572693,0.8134255409240723,0.7655651569366455,2.344836473464966,0.9973766803741455,,,,,,,
4633116000.0,100.2,2.0799999237060547,12041169408.0,1820.7021969832495,176.0,0.015667414292693138,724992.0,1599.6517848968506,1.7165088794790506e-14,0.0,2.2199912071228027,-0.022199897095561028,0.047370608896017075,-0.02219991199672222,1.4901161193847656e-08,0.0,0.07563291490077972,0.2984001040458679,0.8062145338540122,0.8335266709327698,0.6148591637611389,0.9091595411300659,0.6778573989868164,2.2496814727783203,0.9969675540924072,,,,,,,
4633116000.0,102.49,2.5299999713897705,12041169408.0,1763.5219365630255,177.0,0.01752111315727234,729088.0,1601.9744098186493,1.6667223157185163e-14,0.0,2.2376155853271484,-0.022376153618097305,0.04644249379634857,-0.022376155480742455,1.862645149230957e-09,0.0,0.04026847332715988,0.30213525891304016,0.7822204444961728,0.6532182693481445,0.6028144359588623,0.6934868097305298,0.6474300622940063,2.322624921798706,0.9974815845489502,,,,,,,
4633116000.0,106.29,2.619999885559082,12041169408.0,1806.1268097807033,178.0,0.011617482639849186,733184.0,1604.2422461509705,1.868470655974619e-14,0.0,2.205409526824951,-0.022054091095924377,0.11261163651943207,-0.022054094821214676,3.725290298461914e-09,0.0,0.035231903195381165,0.47332513332366943,0.6085021945192706,0.6345047950744629,0.5578492283821106,0.6697366833686829,0.756475567817688,2.267836332321167,0.9973344802856445,,,,,,,
4633116000.0,103.56,2.5,12041169408.0,1712.5111639532595,179.0,0.015951231122016907,737280.0,1606.6340553760529,1.7067944280135805e-14,0.0,2.2113754749298096,-0.022113755345344543,0.11247269809246063,-0.022113753482699394,-2.7939677238464355e-09,0.0,0.08374015986919403,0.466889888048172,0.6331741312001342,0.503413200378418,0.5621686577796936,0.5871533155441284,0.7708759903907776,2.3918092250823975,0.997581958770752,,,,,,,
4633116000.0,110.53,2.5799999237060547,12041169408.0,1722.8496615697807,180.0,0.014215835370123386,741376.0,1609.0115118026733,1.7730608647958945e-14,0.0,2.2025065422058105,-0.02202506735920906,0.15724338591098785,-0.02202506549656391,-1.862645149230957e-09,0.0,0.11223822832107544,0.5495116710662842,0.5249381114905398,0.5120151042938232,0.5473170876502991,0.6242533922195435,0.797263503074646,2.3774564266204834,0.9972760677337646,,,,,,,
4633116000.0,103.74,2.130000114440918,12041169408.0,1779.504753634081,181.0,0.009764028713107109,745472.0,1611.3132758140564,1.8030715809302933e-14,0.0,2.199814796447754,-0.021998148411512375,0.07884860038757324,-0.021998146548867226,-9.313225746154785e-10,0.0,0.03879957273602486,0.3952593505382538,0.6688177017204182,0.5172262191772461,0.5342770218849182,0.5560257434844971,0.6868289113044739,2.3017640113830566,0.9975473880767822,,,,,,,
4633116000.0,113.9,2.2100000381469727,12041169408.0,1676.3389477780338,182.0,0.008687332272529602,749568.0,1613.7566957473755,1.925543058334256e-14,0.0,2.190380096435547,-0.021903807297348976,0.0825272649526596,-0.02190379984676838,-7.450580596923828e-09,0.0,0.02734929509460926,0.4053969383239746,0.5686995512651241,0.5967551469802856,0.5186037421226501,0.6241044998168945,0.6172918081283569,2.443419933319092,0.997344970703125,,,,,,,
4633116000.0,113.31,1.6200000047683716,12041169408.0,1789.2673950297149,183.0,0.005899083334952593,753664.0,1616.0459008216858,2.0006565848440516e-14,0.0,2.147284984588623,-0.021472826600074768,0.08595830947160721,-0.02147284895181656,2.2351741790771484e-08,0.0,-0.04825456440448761,0.41186103224754333,0.6683989932724879,0.4762670397758484,0.5377917289733887,0.4280124306678772,0.715225100517273,2.2892050743103027,0.9971632957458496,,,,,,,
4633116000.0,114.2,1.7400000095367432,12041169408.0,1814.974049687987,184.0,0.014130564406514168,757760.0,1618.3026823997498,2.1496693314304594e-14,0.0,2.1375632286071777,-0.021375618875026703,0.06766685098409653,-0.021375631913542747,1.30385160446167e-08,0.0,0.06468923389911652,0.36218923330307007,0.7239192548362358,0.6248371601104736,0.6111962199211121,0.6895264387130737,0.689314603805542,2.256781578063965,0.9970672130584717,,,,,,,
4633116000.0,105.61,1.9299999475479126,12041169408.0,1784.7097190130792,185.0,0.013786828145384789,761856.0,1620.5977334976196,2.3136006999102676e-14,0.0,2.1212241649627686,-0.021212242543697357,0.1251809149980545,-0.021212240681052208,-1.862645149230957e-09,0.0,0.011541841551661491,0.5002896785736084,0.572658055461938,0.5667657852172852,0.6022863984107971,0.5783076286315918,0.7653036713600159,2.295051097869873,0.9978959560394287,,,,,,,
4633116000.0,114.85,2.259999990463257,12041169408.0,1809.5888488030657,186.0,0.011810215190052986,765952.0,1622.8612310886383,2.2513241271227002e-14,0.0,2.0792860984802246,-0.02079286240041256,0.0811329260468483,-0.02079286053776741,-1.862645149230957e-09,0.0,0.04998593032360077,0.3997577726840973,0.7431712744522401,0.6469238996505737,0.6199783682823181,0.6969097852706909,0.788814902305603,2.2634975910186768,0.9974217414855957,,,,,,,
4633116000.0,117.68,2.619999885559082,12041169408.0,1792.0096397918458,187.0,0.01871553622186184,770048.0,1625.1469330787659,2.5033794481821303e-14,0.0,2.037705421447754,-0.02037707157433033,0.26818013191223145,-0.020377052947878838,-1.862645149230957e-08,0.0,0.15666410326957703,0.7155008912086487,0.45889338022485704,0.6302096843719482,0.6125762462615967,0.7868738174438477,0.9726772904396057,2.2857019901275635,0.9973843097686768,,,,,,,
4633116000.0,120.89,2.7699999809265137,12041169408.0,1807.1367702643583,188.0,0.01477388571947813,774144.0,1627.4135019779205,2.7016583414862794e-14,0.0,2.0337462425231934,-0.020337466150522232,0.08503591269254684,-0.020337462425231934,-3.725290298461914e-09,0.0,0.09192110598087311,0.40207189321517944,0.6851931514624048,0.6566061973571777,0.5627437829971313,0.7485273480415344,0.7166079878807068,2.266568899154663,0.9972279071807861,,,,,,,
4633116000.0,125.39,3.2799999713897705,12041169408.0,1770.9834201496358,189.0,0.016318270936608315,778240.0,1629.7263412475586,2.691596945325614e-14,0.0,2.021468162536621,-0.020214680582284927,0.07133827358484268,-0.020214680582284927,0.0,0.0,0.08398491889238358,0.36831536889076233,0.8050259517811236,0.8915631771087646,0.7709401249885559,0.9755480289459229,0.8341255187988281,2.3128392696380615,0.9972662925720215,,,,,,,
4633116000.0,120.98,2.9600000381469727,12041169408.0,1751.0877297555696,190.0,0.01569615863263607,782336.0,1632.0654587745667,2.8027927201357272e-14,0.0,1.965339183807373,-0.01965338923037052,0.06226462870836258,-0.01965339109301567,1.862645149230957e-09,0.0,0.04495631530880928,0.35005444288253784,0.7676516367848766,0.8621631860733032,0.6672555208206177,0.9071195125579834,0.7262158989906311,2.3391175270080566,0.9978656768798828,,,,,,,
4633116000.0,118.9,2.880000114440918,12041169408.0,1797.5109602966775,191.0,0.012127240188419819,786432.0,1634.3441653251648,2.876344995517144e-14,0.0,1.9396131038665771,-0.01939612254500389,0.08089637756347656,-0.019396129995584488,7.450580596923828e-09,0.0,0.027329012751579285,0.40135419368743896,0.7592091587549366,0.9451643228530884,0.6983746290206909,0.9724932909011841,0.8179143667221069,2.2787065505981445,0.9976513385772705,,,,,,,
,,,,,,,,,,,,,,,,,,,,,,,,,,0.02764153853058815,0.12461940199136734,0.1097138449549675,0.02764153853058815,0.12461940199136734,0.1097138449549675,
,,,,,,,,,,,,,,,,,,,,,,,,,,0.015413424000144005,0.08845330774784088,0.08187855780124664,0.015413424000144005,0.08845330774784088,0.08187855780124664,
,,,,,,,,,,,,,,,,,,,,,,,,,,0.01182448398321867,0.07841140031814575,0.07244781404733658,0.01182448398321867,0.07841140031814575,0.07244781404733658,
,,,,,,,,,,,,,,,,,,,,,,,,,,0.008038808591663837,0.07101794332265854,0.06690427660942078,0.008038808591663837,0.07101794332265854,0.06690427660942078,
,,,,,,,,,,,,,,,,,,,,,,,,,,0.009680544957518578,0.06672652810811996,0.0629129558801651,0.009680544957518578,0.06672652810811996,0.0629129558801651,
,,,,,,,,,,,,,,,,,,,,,,,,,,0.014174778945744038,0.06593400239944458,0.06268271058797836,0.014174778945744038,0.06593400239944458,0.06268271058797836,
,,,,,,,,,,,,,,,,,,,,,,,,,,,,,,,,2.58
4634408000.0,117.24,2.7200000286102295,11990521856.0,16.981089618731772,192.0,0.014882520772516727,790528.0,1875.5536572933197,2.6255039808908975e-14,0.0,1.917637586593628,-0.019176356494426727,0.10224609076976776,-0.01917637512087822,1.862645149230957e-08,0.0,0.09500342607498169,0.4421699345111847,0.7697404022538709,0.8154643774032593,0.7071712017059326,0.9104677438735962,0.9214681386947632,241.2094919681549,0.9971675872802734,,,,,,,
4634408000.0,118.5,3.1500000953674316,12041169408.0,1824.405978660022,193.0,0.020860813558101654,794624.0,1877.7987716197968,2.443184543565735e-14,0.0,1.9189836978912354,-0.019189832732081413,0.14593170583248138,-0.01918983645737171,3.725290298461914e-09,0.0,0.10440865159034729,0.5301234126091003,0.8263403467562813,0.9142199158668518,0.9398989677429199,1.0186285972595215,1.272118330001831,2.245114326477051,0.9972295761108398,,,,,,,
4634408000.0,128.91,3.8499999046325684,12041169408.0,1778.7513778439402,194.0,0.020275617018342018,798720.0,1880.1015105247498,2.509450980348049e-14,0.0,1.9969074726104736,-0.01996908336877823,0.16436812281608582,-0.019969074055552483,-9.778887033462524e-09,0.0,0.1352871060371399,0.5572337508201599,0.8065508233884127,1.1278529167175293,0.96128249168396,1.2631399631500244,1.2669340372085571,2.302738904953003,0.9970707893371582,,,,,,,
4634408000.0,119.95,3.7100000381469727,12041169408.0,1809.9438295774255,195.0,0.015537608414888382,802816.0,1882.3645641803741,2.485164851684374e-14,0.0,1.9945892095565796,-0.019945887848734856,0.09035061299800873,-0.019945891574025154,3.725290298461914e-09,0.0,0.005490686744451523,0.42510610818862915,0.7868798409023955,1.2476840019226074,0.8560017943382263,1.2531746625900269,0.9208418726921082,2.2630536556243896,0.9972078800201416,,,,,,,
4634572000.0,128.96,3.940000057220459,12041169408.0,1799.7293664118706,196.0,0.019840871915221214,806912.0,1884.640461921692,2.268324417187273e-14,0.0,1.9707725048065186,-0.019707735627889633,0.25954103469848633,-0.019707724452018738,-1.1175870895385742e-08,0.0,0.11382430046796799,0.7115122675895691,0.7653211044807704,1.6831575632095337,1.3258634805679321,1.7969820499420166,1.468741774559021,2.275897741317749,0.9975881576538086,,,,,,,
4634572000.0,138.54,4.159999847412109,12041169408.0,1784.9741419902675,197.0,0.01816629245877266,811008.0,1886.935173034668,2.4966140266258208e-14,0.0,1.9423449039459229,-0.01942344941198826,0.25485363602638245,-0.01942344941198826,0.0,0.0,0.02208894118666649,0.7136831879615784,0.7654369907545256,1.9733054637908936,1.4175585508346558,1.9953944683074951,1.473586916923523,2.294711112976074,0.9971485137939453,,,,,,,
4634572000.0,142.18,4.099999904632568,12041169408.0,1778.753772011728,198.0,0.016992397606372833,815104.0,1889.2379088401794,2.427572032281944e-14,0.0,1.9267213344573975,-0.019267195835709572,0.26744362711906433,-0.019267212599515915,1.6763806343078613e-08,0.0,-0.1334061622619629,0.7191776037216187,0.7916743108414293,2.1733386516571045,1.4543750286102295,2.0399324893951416,1.5756679773330688,2.3027358055114746,0.9971940517425537,,,,,,,
4634572000.0,148.29,4.230000019073486,12041169408.0,1754.982834032829,199.0,0.017077013850212097,819200.0,1891.5718348026276,2.3750099109598466e-14,0.0,1.9509930610656738,-0.019509922713041306,0.31279486417770386,-0.019509930163621902,7.450580596923828e-09,0.0,-0.08790917694568634,0.7861377596855164,0.7419056606278885,2.3129992485046387,1.5849803686141968,2.2250900268554688,1.54742431640625,2.33392596244812,0.9974045753479004,,,,,,,
4634572000.0,138.53,3.819999933242798,12041169408.0,1787.514437462426,200.0,0.017188068479299545,823296.0,1893.8632848262787,2.475797344914099e-14,0.0,1.9412925243377686,-0.01941291056573391,0.16189561784267426,-0.019412925466895103,1.4901161193847656e-08,0.0,-0.08892202377319336,0.5621042847633362,0.8517590933424805,2.122605085372925,1.3022258281707764,2.0336830615997314,1.459932804107666,2.291450023651123,0.9972817897796631,,,,,,,
4634572000.0,140.88,3.9600000381469727,12041169408.0,1774.2754522681155,201.0,0.018700536340475082,827392.0,1896.1718327999115,2.323662096070933e-14,0.0,1.9152233600616455,-0.01915222592651844,0.19738036394119263,-0.019152233377099037,7.450580596923828e-09,0.0,0.04961733892560005,0.6264141201972961,0.8458820833118317,2.3442459106445312,1.3937805891036987,2.3938632011413574,1.595639944076538,2.3085479736328125,0.9969604015350342,,,,,,,
4634572000.0,148.69,4.590000152587891,12041169408.0,1778.3923256507512,202.0,0.022374659776687622,831488.0,1898.4750366210938,2.3162027851242328e-14,0.0,1.9437625408172607,-0.019437633454799652,0.21979250013828278,-0.019437624141573906,-9.313225746154785e-09,0.0,0.033110521733760834,0.6622656583786011,0.8665626902387279,2.228644371032715,1.5729482173919678,2.2617549896240234,1.8129823207855225,2.303203821182251,0.9972681999206543,,,,,,,
4634572000.0,147.18,4.699999809265137,12041169408.0,1758.479244106107,203.0,0.0158097967505455,835584.0,1900.8043220043182,2.3425705819590803e-14,0.0,1.9242764711380005,-0.019242770969867706,0.14903604984283447,-0.01924276351928711,-7.450580596923828e-09,0.0,-0.048754021525382996,0.5438449382781982,0.8592830029615485,1.8648381233215332,1.3475232124328613,1.8160840272903442,1.4497790336608887,2.3292853832244873,0.9973874092102051,,,,,,,
4634572000.0,137.36,4.320000171661377,12041169408.0,1798.875326205698,204.0,0.016545521095395088,839680.0,1903.0813002586365,2.398081733190338e-14,0.0,1.9286173582077026,-0.019286150112748146,0.12413179874420166,-0.019286172464489937,2.2351741790771484e-08,0.0,-0.08928301930427551,0.49025586247444153,0.8971802684774891,1.80774986743927,1.4120081663131714,1.7184667587280273,1.5289193391799927,2.2769782543182373,0.9973838329315186,,,,,,,
4634572000.0,133.92,3.9200000762939453,12041169408.0,1780.4733425459885,205.0,0.019752105697989464,843776.0,1905.381812095642,2.4549806632023774e-14,0.0,1.9163602590560913,-0.019163591787219048,0.21762266755104065,-0.019163602963089943,1.1175870895385742e-08,0.0,0.06055974215269089,0.6570260524749756,0.8589828960508343,1.9286415576934814,1.607132077217102,1.9892011880874634,1.7496321201324463,2.3005118370056152,0.9972784519195557,,,,,,,
4634572000.0,138.84,4.269999980926514,12041169408.0,1748.4960767438888,206.0,0.019284136593341827,847872.0,1907.7243967056274,2.3798671366925817e-14,0.0,1.8897916078567505,-0.01889791153371334,0.13780638575553894,-0.01889791525900364,3.725290298461914e-09,0.0,0.036839812994003296,0.5237581133842468,0.901010606965723,2.0853843688964844,1.5330965518951416,2.1222240924835205,1.6647017002105713,2.3425846099853516,0.9976420402526855,,,,,,,
4634572000.0,140.82,4.449999809265137,12041169408.0,1781.5534584177278,207.0,0.02004985511302948,851968.0,1910.0235137939453,2.6570759481536754e-14,0.0,1.8588085174560547,-0.018588081002235413,0.20191150903701782,-0.01858808472752571,3.725290298461914e-09,0.0,0.05654916912317276,0.6330268979072571,0.9007314124610208,2.211568832397461,1.8302147388458252,2.268117904663086,2.0091679096221924,2.299117088317871,0.9973030090332031,,,,,,,
4634572000.0,149.45,4.989999771118164,12041169408.0,1761.7496608503532,208.0,0.015715695917606354,856064.0,1912.3484752178192,2.4811749876896272e-14,0.0,1.848289966583252,-0.018482906743884087,0.25851330161094666,-0.01848289929330349,-7.450580596923828e-09,0.0,-0.03193396329879761,0.7184238433837891,0.875817102770023,1.9162322282791138,1.9202313423156738,1.8842982053756714,2.0386834144592285,2.3249614238739014,0.9972424507141113,,,,,,,
4634572000.0,153.28,5.110000133514404,12041169408.0,1798.296125940305,209.0,0.02322661131620407,860160.0,1914.6261868476868,2.573635748959191e-14,0.0,1.867864727973938,-0.018678635358810425,0.30574852228164673,-0.01867864653468132,1.210719347000122e-08,0.0,0.08746348321437836,0.7771709561347961,0.8639191930684804,2.4474761486053467,1.9372200965881348,2.5349395275115967,2.1067750453948975,2.2777116298675537,0.9973945617675781,,,,,,,
4634572000.0,152.02,4.800000190734863,12041169408.0,1803.8087095645324,210.0,0.013765341602265835,864256.0,1916.8969376087189,2.33511127101238e-14,0.0,1.9157856702804565,-0.01915784925222397,0.3448524475097656,-0.019157856702804565,7.450580596923828e-09,0.0,-0.1046411395072937,0.8239665627479553,0.864207904720637,3.1076812744140625,2.1845884323120117,3.003040313720703,2.2360029220581055,2.2707507610321045,0.9972021579742432,,,,,,,
4634572000.0,159.2,5.119999885559082,12041169408.0,1750.253364245882,211.0,0.02464454248547554,868352.0,1919.2371702194214,2.5096244526956468e-14,0.0,1.9108211994171143,-0.01910821534693241,0.2968215048313141,-0.019108211621642113,-3.725290298461914e-09,0.0,-0.053017742931842804,0.7687498331069946,0.899794869532226,2.814703941345215,2.3278069496154785,2.761686325073242,2.428511142730713,2.3402326107025146,0.9972658157348633,,,,,,,
4634572000.0,163.67,5.320000171661377,12041169408.0,1818.7302037173308,212.0,0.015736494213342667,872448.0,1921.4892909526825,2.5705132467024328e-14,0.0,1.8782973289489746,-0.018782977014780045,0.16060498356819153,-0.018782973289489746,-3.725290298461914e-09,0.0,-0.0564601793885231,0.5640034079551697,0.9319188393688193,2.391976833343506,2.05704402923584,2.3355166912078857,2.161564826965332,2.2521207332611084,0.9985301494598389,,,,,,,
4634572000.0,155.92,4.46999979019165,12041169408.0,1778.8646474569912,213.0,0.014040163718163967,876544.0,1923.7918832302094,2.2799470644763176e-14,0.0,1.9056892395019531,-0.0190568957477808,0.2191811352968216,-0.0190568920224905,-3.725290298461914e-09,0.0,-0.1384814977645874,0.6475241780281067,0.8880247526667325,2.3327200412750244,1.9094330072402954,2.1942386627197266,1.9350624084472656,2.3025922775268555,0.9973061084747314,,,,,,,
4634572000.0,141.77,4.369999885559082,12041169408.0,1802.021109401031,214.0,0.02417135424911976,880640.0,1926.0648865699768,2.3741425492218582e-14,0.0,1.9053057432174683,-0.019053056836128235,0.19846510887145996,-0.019053056836128235,0.0,0.0,0.11483384668827057,0.6195458769798279,0.9120209094119583,2.0557045936584473,1.9014019966125488,2.1705384254455566,2.0887370109558105,2.273003339767456,0.9972434043884277,,,,,,,
4634572000.0,145.33,4.619999885559082,12041169408.0,1807.3586340220286,215.0,0.019727498292922974,884736.0,1928.3311772346497,2.253058850598677e-14,0.0,1.9315359592437744,-0.019315361976623535,0.15295785665512085,-0.019315358251333237,-3.725290298461914e-09,0.0,0.1101524606347084,0.5420829057693481,0.9104603265177947,2.0659677982330322,1.6385771036148071,2.1761202812194824,1.8115818500518799,2.2662906646728516,0.997347354888916,,,,,,,
4634572000.0,144.38,4.670000076293945,12041169408.0,1766.2013904366972,216.0,0.01845734193921089,888832.0,1930.6502785682678,2.183496439212007e-14,0.0,1.913205623626709,-0.019132038578391075,0.18008416891098022,-0.019132055342197418,1.6763806343078613e-08,0.0,0.09248875081539154,0.5930430293083191,0.9111093138325067,1.9541860818862915,1.8196299076080322,2.0466747283935547,1.9891064167022705,2.319101333618164,0.9973492622375488,,,,,,,
4634572000.0,146.77,4.980000019073486,12041169408.0,1806.9668446405828,217.0,0.022611554712057114,892928.0,1932.9170606136322,2.305794444268372e-14,0.0,1.9616965055465698,-0.019616950303316116,0.21451036632061005,-0.01961696520447731,1.4901161193847656e-08,0.0,-0.0151155274361372,0.6549022793769836,0.8680887833967119,2.080303907394409,1.6572041511535645,2.065188407897949,1.8031654357910156,2.26678204536438,0.9973225593566895,,,,,,,
4634572000.0,151.13,5.130000114440918,12041169408.0,1798.698476162038,218.0,0.017855647951364517,897024.0,1935.1942627429962,2.1800269922600535e-14,0.0,1.98366379737854,-0.01983664557337761,0.17381615936756134,-0.019836638122797012,-6.51925802230835e-09,0.0,0.05995846539735794,0.5866185426712036,0.8750335912313589,1.649708867073059,1.6134183406829834,1.7096673250198364,1.6594308614730835,2.2772021293640137,0.9973359107971191,,,,,,,
4634572000.0,145.98,4.5,12041169408.0,1760.2265467749955,219.0,0.01554669626057148,901120.0,1937.5212359428406,2.1144544448681302e-14,0.0,1.9843955039978027,-0.01984395831823349,0.19153311848640442,-0.01984395459294319,-3.725290298461914e-09,0.0,-0.002405397593975067,0.6189943552017212,0.8680504586377583,1.930826187133789,1.5898884534835815,1.9284207820892334,1.7040513753890991,2.3269731998443604,0.9973461627960205,,,,,,,
4635364000.0,145.32,4.349999904632568,12041169408.0,1800.9739993144087,220.0,0.013698507100343704,905216.0,1939.795560836792,2.090168316204455e-14,0.0,1.9728879928588867,-0.019728869199752808,0.3794170618057251,-0.019728880375623703,1.1175870895385742e-08,0.0,-0.10779915750026703,0.8645206093788147,0.8232184776612583,2.866421699523926,2.0043578147888184,2.758622646331787,2.0561602115631104,2.274324893951416,0.9972996711730957,,,,,,,
4635364000.0,159.24,4.429999828338623,12041169408.0,1782.2751884967474,221.0,0.01753045618534088,909312.0,1942.0937469005585,2.2272114708066226e-14,0.0,2.0433337688446045,-0.020433329045772552,0.32017552852630615,-0.02043333649635315,7.450580596923828e-09,0.0,0.037713244557380676,0.7994278073310852,0.8654681094477445,2.4647939205169678,2.096294403076172,2.502507209777832,2.179548978805542,2.2981860637664795,0.9979743957519531,,,,,,,
4635364000.0,158.12,4.199999809265137,12041169408.0,1759.5153516322957,222.0,0.017256341874599457,913408.0,1944.4216606616974,2.0924234567232247e-14,0.0,2.0768489837646484,-0.020768489688634872,0.25618433952331543,-0.020768489688634872,0.0,0.0,-0.03648114204406738,0.7149562835693359,0.8520370101268555,2.4375836849212646,1.779356837272644,2.4011025428771973,1.8586729764938354,2.327913761138916,0.9975364208221436,,,,,,,
4635364000.0,169.54,4.619999885559082,12041169408.0,1781.4514838006967,223.0,0.017069000750780106,917504.0,1946.720909357071,2.0691781621451355e-14,0.0,2.058698892593384,-0.02058699168264866,0.2358785718679428,-0.02058698795735836,-3.725290298461914e-09,0.0,0.015533635392785072,0.6867539286613464,0.8588407650622172,2.3658230304718018,1.7146434783935547,2.381356716156006,1.827875018119812,2.299248695373535,0.997340202331543,,,,,,,
,,,,,,,,,,,,,,,,,,,,,,,,,,0.08581753820180893,0.618402898311615,0.5903365015983582,0.08581753820180893,0.618402898311615,0.5903365015983582,
,,,,,,,,,,,,,,,,,,,,,,,,,,0.03807997331023216,0.4358063340187073,0.40858936309814453,0.03807997331023216,0.4358063340187073,0.40858936309814453,
,,,,,,,,,,,,,,,,,,,,,,,,,,0.02751838229596615,0.3508431017398834,0.3275531232357025,0.02751838229596615,0.3508431017398834,0.3275531232357025,
,,,,,,,,,,,,,,,,,,,,,,,,,,0.02241489104926586,0.3189261257648468,0.30458346009254456,0.02241489104926586,0.3189261257648468,0.30458346009254456,
,,,,,,,,,,,,,,,,,,,,,,,,,,0.0198969803750515,0.2817157208919525,0.2600727379322052,0.0198969803750515,0.2817157208919525,0.2600727379322052,
,,,,,,,,,,,,,,,,,,,,,,,,,,0.018375786021351814,0.2598129212856293,0.24565359950065613,0.018375786021351814,0.2598129212856293,0.24565359950065613,
,,,,,,,,,,,,,,,,,,,,,,,,,,,,,,,,2.86
4636776000.0,174.2,4.929999828338623,11990521856.0,16.993330388505893,224.0,0.016452956944704056,921600.0,2187.75665140152,1.9949319973733282e-14,0.0,2.0468339920043945,-0.0204683355987072,0.15535061061382294,-0.020468339323997498,2.7939677238464355e-09,0.0,-0.005127623211592436,0.5574502348899841,0.9283110039707839,2.4349546432495117,1.9365246295928955,2.4298272132873535,2.081995964050293,241.03574204444885,0.9973273277282715,,,,,,,
4636776000.0,156.85,4.28000020980835,12041169408.0,1776.4533742065485,225.0,0.013400104828178883,925696.0,2190.0623691082,1.9930238015497537e-14,0.0,2.0240023136138916,-0.020240021869540215,0.18640270829200745,-0.020240021869540215,0.0,0.0,-0.0415123775601387,0.6092395186424255,0.8838376656949773,1.9720914363861084,1.6021981239318848,1.9305790662765503,1.7875382900238037,2.305717706680298,0.9975221157073975,,,,,,,
4636776000.0,153.56,4.099999904632568,12041169408.0,1750.6282575766454,226.0,0.019883088767528534,929792.0,2192.4021005630493,2.0747292772682613e-14,0.0,2.0126771926879883,-0.02012677676975727,0.13412261009216309,-0.020126771181821823,-5.587935447692871e-09,0.0,-0.07531966269016266,0.5124805569648743,0.9115668405553866,2.070250988006592,1.597460389137268,1.9949313402175903,1.7233352661132812,2.339731454849243,0.9975836277008057,,,,,,,
4636776000.0,143.33,4.010000228881836,12041169408.0,1782.1496523329429,227.0,0.01789264567196369,933888.0,2194.700448513031,2.0549534296421257e-14,0.0,2.010855197906494,-0.020108554512262344,0.1531405746936798,-0.020108550786972046,-4.6566128730773926e-09,0.0,-0.013369176536798477,0.5533327460289001,0.8085702375342116,2.1265993118286133,1.188747763633728,2.1132302284240723,1.2646832466125488,2.2983479499816895,0.9986321926116943,,,,,,,
4636776000.0,144.98,4.599999904632568,12041169408.0,1752.7715461184946,228.0,0.021661169826984406,937984.0,2197.037318944931,1.8303067395031292e-14,0.0,2.0735044479370117,-0.020735032856464386,0.19923625886440277,-0.02073504403233528,1.1175870895385742e-08,0.0,0.1028851717710495,0.6228819489479065,0.9091419674570634,2.3704514503479004,1.896337628364563,2.473336696624756,2.06644606590271,2.3368704319000244,0.9971165657043457,,,,,,,
4636776000.0,145.12,4.760000228881836,12041169408.0,1814.8893029525452,229.0,0.02074403502047062,942080.0,2199.294205904007,1.9532986339498848e-14,0.0,2.1147050857543945,-0.021147048100829124,0.16055676341056824,-0.021147049963474274,1.862645149230957e-09,0.0,0.028592467308044434,0.5660160779953003,0.908616447007381,1.7600222826004028,1.644740343093872,1.7886147499084473,1.8723832368850708,2.2568869590759277,0.9972987174987793,,,,,,,
4636776000.0,145.5,4.949999809265137,12041169408.0,1795.0699130721894,230.0,0.013732010498642921,946176.0,2201.5760111808777,2.001003529539247e-14,0.0,2.046638011932373,-0.02046637237071991,0.12555137276649475,-0.020466379821300507,7.450580596923828e-09,0.0,0.020156655460596085,0.500757098197937,0.9142570399867402,2.0706448554992676,1.5239118337631226,2.09080171585083,1.7101250886917114,2.2818052768707275,0.9974889755249023,,,,,,,
4636776000.0,154.04,5.389999866485596,12041169408.0,1777.2768749482743,231.0,0.023949647322297096,950272.0,2203.880660533905,1.8762769116165146e-14,0.0,2.104395627975464,-0.021043941378593445,0.2446560561656952,-0.02104395627975464,1.4901161193847656e-08,0.0,0.15230825543403625,0.6828089952468872,0.9125209404115019,2.534212350845337,2.030932903289795,2.686520576477051,2.308591604232788,2.3046493530273438,0.9973092079162598,,,,,,,
4636776000.0,153.3,4.929999828338623,12041169408.0,1777.6209460388602,232.0,0.01586068421602249,954368.0,2206.184863805771,2.1083829127022113e-14,0.0,2.0671498775482178,-0.020671501755714417,0.25193583965301514,-0.020671498030424118,-3.725290298461914e-09,0.0,-0.051581427454948425,0.7080489993095398,0.8183339310546944,2.2093405723571777,1.6316637992858887,2.157759189605713,1.6612173318862915,2.3042032718658447,0.9972479343414307,,,,,,,
4636776000.0,169.19,5.449999809265137,12041169408.0,1791.4938830654467,233.0,0.025018902495503426,958464.0,2208.4712238311768,1.8721135752741702e-14,0.0,2.1086459159851074,-0.02108645811676979,0.2989481985569,-0.02108645811676979,0.0,0.0,0.1322099268436432,0.7619439363479614,0.8979646061576679,2.4154133796691895,2.2572977542877197,2.5476231575012207,2.3853254318237305,2.286360025405884,0.9973311424255371,,,,,,,
4636776000.0,180.71,5.889999866485596,12041169408.0,1759.1049409313048,234.0,0.018790295347571373,962560.0,2210.799680709839,1.8861648354295824e-14,0.0,2.089021682739258,-0.020890217274427414,0.3443053066730499,-0.020890217274427414,0.0,0.0,-0.0617033876478672,0.8276295065879822,0.7148285945104171,2.193614959716797,1.6113972663879395,2.1319117546081543,1.5498261451721191,2.3284568786621094,0.9972426891326904,,,,,,,
4636776000.0,171.66,5.070000171661377,12041169408.0,1780.9421550144684,235.0,0.01217394508421421,966656.0,2213.0995869636536,1.7258763862493254e-14,0.0,2.1391849517822266,-0.021391846239566803,0.165077805519104,-0.0213918499648571,3.725290298461914e-09,0.0,-0.11084219813346863,0.5638681054115295,0.8919960588312321,2.306222438812256,1.6409354209899902,2.195380210876465,1.7157645225524902,2.2999062538146973,0.9974257946014404,,,,,,,
4636776000.0,167.42,5.300000190734863,12041169408.0,1770.6395411143467,236.0,0.018546368926763535,970752.0,2215.4128754138947,1.7829487886089623e-14,0.0,2.17252254486084,-0.021725226193666458,0.2877987325191498,-0.02172522433102131,-9.313225746154785e-10,0.0,0.02987111359834671,0.7581856846809387,0.9186509802322216,3.1903538703918457,2.4852914810180664,3.2202253341674805,2.6582717895507812,2.313288450241089,0.9974501132965088,,,,,,,
4636776000.0,156.9,4.650000095367432,12041169408.0,1772.8484219568227,237.0,0.020751144737005234,974848.0,2217.723281621933,1.866735932498642e-14,0.0,2.1755104064941406,-0.021755095571279526,0.27611875534057617,-0.021755103021860123,7.450580596923828e-09,0.0,-0.017777565866708755,0.7430048584938049,0.9008192482408829,3.130864143371582,2.217849016189575,3.113086700439453,2.359272003173828,2.31040620803833,0.9973659515380859,,,,,,,
4636776000.0,160.45,5.090000152587891,12041169408.0,1746.485368041555,238.0,0.01980830915272236,978944.0,2220.068563222885,1.8405416080113923e-14,0.0,2.169038772583008,-0.02169039472937584,0.23916876316070557,-0.021690387278795242,-7.450580596923828e-09,0.0,0.13415789604187012,0.6785658597946167,0.9269581394970906,3.517599105834961,2.399930000305176,3.651756763458252,2.5107645988464355,2.3452816009521484,0.9973721504211426,,,,,,,
4636776000.0,170.58,5.960000038146973,12041169408.0,1812.292456016762,239.0,0.025040917098522186,983040.0,2222.328684091568,1.9272777818102327e-14,0.0,2.1350979804992676,-0.021350983530282974,0.3256869912147522,-0.021350979804992676,-4.6566128730773926e-09,0.0,0.05069531500339508,0.8055819869041443,0.9127559356212236,3.6265859603881836,2.627159357070923,3.677281141281128,2.72735595703125,2.2601208686828613,0.9972879886627197,,,,,,,
4636776000.0,178.72,6.260000228881836,12041169408.0,1743.2145449734005,240.0,0.012457629665732384,987136.0,2224.6783661842346,1.835857854626255e-14,0.0,2.172182559967041,-0.02172180823981762,0.31373679637908936,-0.021721825003623962,1.6763806343078613e-08,0.0,-0.1182418093085289,0.7833532094955444,0.8898675463726176,2.9475111961364746,2.381490468978882,2.8292694091796875,2.360478401184082,2.349682092666626,0.9971327781677246,,,,,,,
4636776000.0,179.01,5.880000114440918,12041169408.0,1786.8014672684703,241.0,0.017830833792686462,991232.0,2226.9707305431366,1.7350704206720025e-14,0.0,2.208275079727173,-0.02208275906741619,0.38367778062820435,-0.022082749754190445,-9.313225746154785e-09,0.0,-0.05626748502254486,0.8742860555648804,0.8893655433467635,3.4667232036590576,2.606894016265869,3.4104557037353516,2.628502368927002,2.2923643589019775,0.9972357749938965,,,,,,,
4636776000.0,168.41,5.329999923706055,12041169408.0,1764.7195147004925,242.0,0.019854793325066566,995328.0,2229.291779279709,1.8301332671555315e-14,0.0,2.183928966522217,-0.021839294582605362,0.3682173490524292,-0.021839288994669914,-5.587935447692871e-09,0.0,-0.12928172945976257,0.8484672904014587,0.8976223850498786,3.098586082458496,2.5932788848876953,2.9693045616149902,2.651750087738037,2.3210487365722656,0.997356653213501,,,,,,,
4636776000.0,163.23,4.5,12041169408.0,1803.3183182322643,243.0,0.014160944148898125,999424.0,2231.563147544861,1.7699383625391363e-14,0.0,2.2100727558135986,-0.02210073731839657,0.21650327742099762,-0.022100726142525673,-1.1175870895385742e-08,0.0,-0.040312591940164566,0.6568765640258789,0.9051223506397094,2.8012123107910156,2.0873091220855713,2.760899782180786,2.1325628757476807,2.2713682651519775,0.9973926544189453,,,,,,,
4636776000.0,160.97,4.329999923706055,12041169408.0,1803.951522266318,244.0,0.01798943243920803,1003520.0,2233.8337185382843,1.753285017169759e-14,0.0,2.19960355758667,-0.02199603244662285,0.23494720458984375,-0.021996034309267998,1.862645149230957e-09,0.0,-0.07468713819980621,0.6814907789230347,0.9107119082447674,2.6290225982666016,2.1887362003326416,2.554335355758667,2.2806737422943115,2.270570993423462,0.9971568584442139,,,,,,,
4636776000.0,158.42,4.21999979019165,12041169408.0,1784.7482835431865,245.0,0.013238142244517803,1007616.0,2236.1287200450897,1.8882465036007545e-14,0.0,2.174591541290283,-0.021745916455984116,0.24325306713581085,-0.021745914593338966,-9.313225746154785e-10,0.0,-0.05021994560956955,0.6957746148109436,0.8893467528819039,2.4303133487701416,2.0710792541503906,2.3800933361053467,2.09163761138916,2.29500150680542,0.9971635341644287,,,,,,,
4636776000.0,163.44,3.9600000381469727,12041169408.0,1790.2529865565357,246.0,0.013545939698815346,1011712.0,2238.416664838791,1.7598769663784708e-14,0.0,2.1987862586975098,-0.02198787033557892,0.2249842882156372,-0.02198786288499832,-7.450580596923828e-09,0.0,-0.005497438833117485,0.6708563566207886,0.8760911794461336,2.6184778213500977,1.8477064371109009,2.612980365753174,1.9058048725128174,2.287944793701172,0.9974322319030762,,,,,,,
4636776000.0,175.25,4.25,12041169408.0,1753.604197903192,247.0,0.014005878940224648,1015808.0,2240.752425670624,1.8509499488672532e-14,0.0,2.175189256668091,-0.02175189182162285,0.20883207023143768,-0.02175189182162285,0.0,0.0,0.002119380049407482,0.6463449001312256,0.887672956886038,2.3304190635681152,1.8172283172607422,2.332538604736328,1.9285112619400024,2.3357608318328857,0.9971683025360107,,,,,,,
4636776000.0,191.19,4.929999828338623,12041169408.0,1802.9241158363427,248.0,0.02043304033577442,1019904.0,2243.024290561676,1.752764600126966e-14,0.0,2.1884491443634033,-0.02188449539244175,0.2599390745162964,-0.02188449166715145,-3.725290298461914e-09,0.0,0.11850593239068985,0.7113072872161865,0.876787579053372,2.3964481353759766,1.8632851839065552,2.514953851699829,2.0264227390289307,2.271864891052246,0.9973118305206299,,,,,,,
4636776000.0,195.14,5.329999923706055,12041169408.0,1812.3335601053186,249.0,0.01950743980705738,1024000.0,2245.2843601703644,1.871766630578975e-14,0.0,2.158066511154175,-0.02158067375421524,0.1830853819847107,-0.021580664440989494,-9.313225746154785e-09,0.0,0.12410963326692581,0.592328667640686,0.8794989662790863,1.678877353668213,1.4795992374420166,1.8029870986938477,1.706347107887268,2.2600696086883545,0.9973165988922119,,,,,,,
4636776000.0,184.9,5.400000095367432,12041169408.0,1797.2300252262717,250.0,0.014781411737203598,1028096.0,2247.5634229183197,1.8126125600481657e-14,0.0,2.16994571685791,-0.021699456498026848,0.20716944336891174,-0.021699456498026848,0.0,0.0,0.04293837025761604,0.6423362493515015,0.8771565757804003,1.8968398571014404,1.7466084957122803,1.9397783279418945,1.8326793909072876,2.2790627479553223,0.9979081153869629,,,,,,,
4636776000.0,184.67,5.639999866485596,12041169408.0,1804.4892614740604,251.0,0.019201841205358505,1032192.0,2249.8333172798157,1.8525111999956323e-14,0.0,2.142946243286133,-0.02142946608364582,0.19304272532463074,-0.021429462358355522,-3.725290298461914e-09,0.0,0.1690768152475357,0.597984790802002,0.917908631022681,1.9830628633499146,1.8706141710281372,2.152139902114868,2.0870912075042725,2.2698943614959717,0.9972500801086426,,,,,,,
4636776000.0,190.11,5.869999885559082,12041169408.0,1799.7953564716702,252.0,0.019192511215806007,1036288.0,2252.1091315746307,2.0551269019897234e-14,0.0,2.0580153465270996,-0.020580148324370384,0.2385118305683136,-0.020580153912305832,5.587935447692871e-09,0.0,0.15991109609603882,0.6719838976860046,0.8620136819235138,1.759685754776001,1.6327065229415894,1.9195969104766846,1.8090094327926636,2.2758142948150635,0.997429370880127,,,,,,,
4636776000.0,180.43,5.840000152587891,12041169408.0,1794.0338609239325,253.0,0.023344025015830994,1040384.0,2254.392254590988,2.1187912535580722e-14,0.0,2.0310420989990234,-0.02031043916940689,0.23052990436553955,-0.0203104205429554,-1.862645149230957e-08,0.0,0.15782059729099274,0.6604989767074585,0.8630551559697286,1.9824700355529785,1.626437783241272,2.1402907371520996,1.7848403453826904,2.283123016357422,0.9972951412200928,,,,,,,
4636776000.0,186.44,6.190000057220459,12041169408.0,1768.241763924135,254.0,0.015046672895550728,1044480.0,2256.7086799144745,1.9402882078800587e-14,0.0,2.0248751640319824,-0.020248763263225555,0.21799981594085693,-0.02024875208735466,-1.0244548320770264e-08,0.0,0.08308292925357819,0.6551348567008972,0.8588618424401113,2.2478575706481934,1.6495567560195923,2.3309407234191895,1.7438476085662842,2.316425323486328,0.9971840381622314,,,,,,,
4636776000.0,210.61,6.860000133514404,12041169408.0,1757.9867423459457,255.0,0.01949361339211464,1048576.0,2259.03861784935,2.1219137558148304e-14,0.0,2.071835517883301,-0.020718354731798172,0.3173214793205261,-0.020718354731798172,0.0,0.0,0.06811148673295975,0.7938246726989746,0.868478887189915,2.9388766288757324,2.084141492843628,3.006988048553467,2.1889050006866455,2.3299379348754883,0.9972267150878906,,,,,,,
,,,,,,,,,,,,,,,,,,,,,,,,,,0.024634109809994698,0.4073219299316406,0.3266317844390869,0.024634109809994698,0.4073219299316406,0.3266317844390869,
,,,,,,,,,,,,,,,,,,,,,,,,,,0.02553384192287922,0.3247910737991333,0.27618664503097534,0.02553384192287922,0.3247910737991333,0.27618664503097534,
,,,,,,,,,,,,,,,,,,,,,,,,,,0.0167310182005167,0.24974937736988068,0.22528952360153198,0.0167310182005167,0.24974937736988068,0.22528952360153198,
,,,,,,,,,,,,,,,,,,,,,,,,,,0.016017943620681763,0.2445642203092575,0.22109128534793854,0.016017943620681763,0.2445642203092575,0.22109128534793854,
,,,,,,,,,,,,,,,,,,,,,,,,,,0.012603972107172012,0.21420444548130035,0.1969742327928543,0.012603972107172012,0.21420444548130035,0.1969742327928543,
,,,,,,,,,,,,,,,,,,,,,,,,,,0.014277985319495201,0.19855386018753052,0.17576037347316742,0.014277985319495201,0.19855386018753052,0.17576037347316742,
,,,,,,,,,,,,,,,,,,,,,,,,,,,,,,,,4.77
