CpuMaxMemory,EpLenMean,EpRewMean,GpuMaxMemory,IPS_total,Iter,Misc/FrameRewMean,Misc/InteractCount,Misc/TimeElapsed,Opt/approxkl,Opt/clipfrac,Opt/entropy,Opt/loss_pi,Opt/loss_vf,Opt/negent,Opt/pg,Opt/pi_kl,VFStats/AdvMean,VFStats/AdvStd,VFStats/EV,VFStats/VpredMean,VFStats/VpredStd,VFStats/VtargMean,VFStats/VtargStd,del_time,wait_optimization,scaled/pol_distance,scaled/vf_aux,scaled/vf_true,unscaled/pol_distance,unscaled/vf_aux,unscaled/vf_true,EvalEpMean
3030164000.0,76.88095238095238,-3.404761791229248,11965495808.0,1658.7916126686298,0.0,-0.01680799573659897,4096.0,2.4692673683166504,4.614364446098307e-15,0.0,2.7070789337158203,-0.02707078866660595,0.1759752631187439,-0.02707078866660595,0.0,0.0,-0.2324591428041458,0.5458809733390808,0.002054791451786553,-0.02877890132367611,0.010224604047834873,-0.2612380385398865,0.5464426279067993,2.4692673683166504,1.0227744579315186,,,,,,,
3079868000.0,77.94680851063829,-2.872340440750122,12031147008.0,1786.7875295841434,1.0,-0.012007098644971848,8192.0,4.7616496086120605,5.641320743876577e-15,0.0,2.695859432220459,-0.026958588510751724,0.1365797221660614,-0.026958594098687172,4.6566128730773926e-09,0.0,-0.059510380029678345,0.5193108916282654,0.0037492926697888507,-0.43279337882995605,0.09736589342355728,-0.4923037886619568,0.5202872157096863,2.29238224029541,0.9971306324005127,,,,,,,
3129232000.0,80.51,-2.3399999141693115,12031147008.0,1760.5885846174217,2.0,-0.010235948488116264,12288.0,7.088144302368164,6.189493362285248e-15,0.0,2.6789028644561768,-0.026789043098688126,0.191320538520813,-0.026789028197526932,-1.4901161193847656e-08,0.0,0.13272249698638916,0.6042473912239075,0.06325369304472372,-1.0883420705795288,0.25832703709602356,-0.9556195735931396,0.624315083026886,2.3264946937561035,0.9971513748168945,,,,,,,
3178864000.0,82.18,-1.6699999570846558,12031147008.0,1762.3245364835757,3.0,-0.007127696648240089,16384.0,9.412347316741943,7.54084295007118e-15,0.0,2.627356767654419,-0.026273559778928757,0.1483658254146576,-0.026273567229509354,8.381903171539307e-09,0.0,0.06822047382593155,0.5405080318450928,0.04025074391271066,-0.838240921497345,0.17338111996650696,-0.7700204253196716,0.5517258048057556,2.3242030143737793,0.9970114231109619,,,,,,,
3228496000.0,80.62,-1.3799999952316284,12031147008.0,1817.230222186117,4.0,-0.010130194015800953,20480.0,11.666326999664307,7.450637329320386e-15,0.0,2.6286237239837646,-0.02628624439239502,0.13362503051757812,-0.026286236941814423,-7.450580596923828e-09,0.0,-0.02871709316968918,0.516227126121521,-0.02115938102410153,-0.48399633169174194,0.08680273592472076,-0.5127134323120117,0.5108508467674255,2.2539796829223633,0.9970505237579346,,,,,,,
3278128000.0,82.4,-2.2100000381469727,12031147008.0,1761.6080326656706,5.0,-0.0161774642765522,24576.0,13.991475343704224,6.4878658001532585e-15,0.0,2.615912437438965,-0.026159116998314857,0.19653356075286865,-0.026159124448895454,7.450580596923828e-09,0.0,-0.1374729573726654,0.6117677092552185,0.02366346685639731,-0.3598451614379883,0.06677223742008209,-0.4973181486129761,0.6191369891166687,2.325148344039917,0.998131513595581,,,,,,,
3328024000.0,81.9,-2.190000057220459,12031147008.0,1756.35017268182,6.0,-0.00888469535857439,28672.0,16.32358431816101,6.978792543854695e-15,0.0,2.570899248123169,-0.025708984583616257,0.11914775520563126,-0.025708992034196854,7.450580596923828e-09,0.0,-0.01235584169626236,0.4880583882331848,-0.005224856889861185,-0.3387572765350342,0.056246981024742126,-0.35111308097839355,0.486788272857666,2.332108974456787,0.9968738555908203,,,,,,,
3377392000.0,81.61,-1.6399999856948853,12031147008.0,1745.9053415354247,7.0,-0.011535096913576126,32768.0,18.669645071029663,6.486131076677282e-15,0.0,2.501824140548706,-0.02501823753118515,0.14334169030189514,-0.02501824125647545,3.725290298461914e-09,0.0,-0.08241206407546997,0.5291123986244202,0.0038370809535129835,-0.32468658685684204,0.048863086849451065,-0.4070986211299896,0.5301305055618286,2.3460607528686523,0.9972414970397949,,,,,,,
3427024000.0,83.04,-2.0,12031147008.0,1704.6116828306692,8.0,-0.009431373327970505,36864.0,21.072538375854492,6.980527267330672e-15,0.0,2.3770971298217773,-0.02377096749842167,0.11184538155794144,-0.023770971223711967,3.725290298461914e-09,0.0,-0.05863465741276741,0.46936824917793274,0.00012723446881202083,-0.3598429262638092,0.04898863285779953,-0.4184775948524475,0.4693981111049652,2.402893304824829,0.9975168704986572,,,,,,,
3476128000.0,81.02,-1.5399999618530273,12031147008.0,1793.0016238372928,9.0,-0.005593570880591869,40960.0,23.3569757938385,8.07340305719606e-15,0.0,2.2189013957977295,-0.02218901738524437,0.10143589973449707,-0.02218901365995407,-4.6566128730773926e-09,0.0,0.025687985122203827,0.44973471760749817,0.010676723355888207,-0.4270011782646179,0.056620847433805466,-0.40131324529647827,0.4521550238132477,2.284437417984009,0.9971699714660645,,,,,,,
3526024000.0,79.37,-1.0099999904632568,12031147008.0,1787.635708284766,10.0,-0.007270842790603638,45056.0,25.64827036857605,1.309889696710087e-14,0.0,1.9218525886535645,-0.019218536093831062,0.10199957340955734,-0.019218524917960167,-1.1175870895385742e-08,0.0,0.00938404444605112,0.45162028074264526,-0.0038305991604972167,-0.4778153896331787,0.05354997515678406,-0.4684313237667084,0.4507577419281006,2.291294574737549,0.997560977935791,,,,,,,
3575656000.0,80.51,-1.409999966621399,12031147008.0,1798.1878967844848,11.0,-0.011312678456306458,49152.0,27.926119089126587,1.2953180195118819e-14,0.0,1.9980489015579224,-0.019980499520897865,0.1586916148662567,-0.01998048834502697,-1.1175870895385742e-08,0.0,-0.06648603826761246,0.5594990849494934,-0.001514911391309992,-0.5054808855056763,0.05503915995359421,-0.5719668865203857,0.5590758323669434,2.277848720550537,0.9969816207885742,,,,,,,
3625024000.0,84.12,-1.7999999523162842,12031147008.0,1772.2555087856265,12.0,-0.010663220658898354,53248.0,30.237298250198364,1.1051923265448238e-14,0.0,2.054614543914795,-0.020546138286590576,0.14639165997505188,-0.020546145737171173,6.51925802230835e-09,0.0,0.0010109646245837212,0.5411596894264221,0.009909915058748497,-0.5882004499435425,0.06829018145799637,-0.5871895551681519,0.5438612103462219,2.3111791610717773,0.9969038963317871,,,,,,,
3674656000.0,82.49,-1.440000057220459,12031147008.0,1800.4759018928091,13.0,-0.007924465462565422,57344.0,32.51225233078003,7.913808497406194e-15,0.0,2.1836071014404297,-0.02183607779443264,0.14149825274944305,-0.021836070343852043,-7.450580596923828e-09,0.0,0.03168662637472153,0.531094491481781,0.04480888167259245,-0.6621757745742798,0.07414193451404572,-0.6304891705513,0.5434086918830872,2.274954080581665,0.9973721504211426,,,,,,,
3724024000.0,84.28,-1.8200000524520874,12031147008.0,1821.0818203028,14.0,-0.011809123679995537,61440.0,34.76146483421326,6.999609225566417e-15,0.0,2.1833152770996094,-0.021833155304193497,0.16409967839717865,-0.021833151578903198,-3.725290298461914e-09,0.0,0.0248732753098011,0.5724164843559265,0.04206597666550782,-0.6976935863494873,0.1008862853050232,-0.6728203296661377,0.5848498344421387,2.2492125034332275,0.9968161582946777,,,,,,,
3773656000.0,82.53,-1.899999976158142,12031147008.0,1822.4079797891507,15.0,-0.01074074674397707,65536.0,37.00904059410095,7.037773142037906e-15,0.0,2.2528653144836426,-0.02252865582704544,0.18430615961551666,-0.022528652101755142,-3.725290298461914e-09,0.0,-0.0006538871675729752,0.607208251953125,0.04798992859320439,-0.7149426937103271,0.11811087280511856,-0.715596616268158,0.622324526309967,2.2475757598876953,0.9967794418334961,,,,,,,
3823024000.0,83.37,-2.1700000762939453,12031147008.0,1810.1579911181466,16.0,-0.014873255044221878,69632.0,39.27182650566101,6.4965394175331426e-15,0.0,2.2846288681030273,-0.022846277803182602,0.203608438372612,-0.022846288979053497,1.1175870895385742e-08,0.0,-0.07070402801036835,0.6342839002609253,0.05727958389951682,-0.7361977100372314,0.14639008045196533,-0.8069016933441162,0.6532692909240723,2.2627859115600586,0.9969573020935059,,,,,,,
3872656000.0,90.19,-2.690000057220459,12031147008.0,1796.1035947750343,17.0,-0.015093978494405746,73728.0,41.55231857299805,5.979591821692054e-15,0.0,2.3304443359375,-0.023304453119635582,0.2409263253211975,-0.023304441943764687,-1.1175870895385742e-08,0.0,-0.010521745309233665,0.694161057472229,0.006752657598963263,-0.8713365793228149,0.1661820411682129,-0.8818582892417908,0.6965166926383972,2.280492067337036,0.9971311092376709,,,,,,,
3922024000.0,86.65,-2.6700000762939453,12031147008.0,1811.3750775876476,18.0,-0.013871404342353344,77824.0,43.813584089279175,6.179085021429387e-15,0.0,2.3421196937561035,-0.023421209305524826,0.21912041306495667,-0.02342119626700878,-1.30385160446167e-08,0.0,0.03126384690403938,0.6613397002220154,0.08583725835777423,-0.9869226813316345,0.18266628682613373,-0.9556588530540466,0.691692054271698,2.261265516281128,0.9970078468322754,,,,,,,
3971920000.0,80.61,-2.5999999046325684,12031147008.0,1750.5205172654298,19.0,-0.014747997745871544,81920.0,46.153459548950195,5.037636974236648e-15,0.0,2.457274913787842,-0.024572748690843582,0.2226458042860031,-0.024572748690843582,0.0,0.0,0.05735991895198822,0.6649130582809448,0.0704113540086233,-0.9896999597549438,0.17110919952392578,-0.9323400855064392,0.6896352767944336,2.3398754596710205,0.9973082542419434,,,,,,,
4021288000.0,80.05,-2.490000009536743,12031147008.0,1760.4307271894652,20.0,-0.014919347129762173,86016.0,48.48016285896301,5.001207781241135e-15,0.0,2.5584325790405273,-0.025584319606423378,0.22386738657951355,-0.025584325194358826,5.587935447692871e-09,0.0,0.010941688902676105,0.669122040271759,0.07701307395661627,-0.900492787361145,0.1657715141773224,-0.8895511031150818,0.6964783072471619,2.3267033100128174,0.997302770614624,,,,,,,
4070920000.0,83.64,-2.430000066757202,12031147008.0,1777.2141804564744,21.0,-0.013671653345227242,90112.0,50.78489351272583,5.0636578263763e-15,0.0,2.5963540077209473,-0.025963542982935905,0.2083568274974823,-0.025963539257645607,-4.190951585769653e-09,0.0,-0.027130844071507454,0.6450420022010803,0.06882620218285096,-0.8206351399421692,0.15796293318271637,-0.8477660417556763,0.6684556603431702,2.3047306537628174,0.9966239929199219,,,,,,,
4120288000.0,86.05,-1.840000033378601,12031147008.0,1753.1657673714997,22.0,-0.007458698470145464,94208.0,53.121238470077515,4.7791631763161035e-15,0.0,2.5819053649902344,-0.02581905387341976,0.14799416065216064,-0.02581905387341976,0.0,0.0,0.0759560614824295,0.5387855768203735,0.07344252148480512,-0.7658993601799011,0.13659481704235077,-0.6899433135986328,0.5597314834594727,2.3363449573516846,0.9973325729370117,,,,,,,
4169920000.0,81.22,-1.440000057220459,12031147008.0,1790.672089171563,23.0,-0.01015196368098259,98304.0,55.408647775650024,4.760081218080359e-15,0.0,2.5733909606933594,-0.025733914226293564,0.1659597009420395,-0.025733908638358116,-4.6566128730773926e-09,0.0,0.019152846187353134,0.5758762955665588,0.07116304133812457,-0.6247708797454834,0.11779196560382843,-0.6056180000305176,0.5975297093391418,2.2874093055725098,0.996906042098999,,,,,,,
4219288000.0,83.23,-2.240000009536743,12031147008.0,1769.801758442266,24.0,-0.016846362501382828,102400.0,57.72303128242493,4.603956105242446e-15,0.0,2.555814027786255,-0.02555813267827034,0.1942463219165802,-0.025558140128850937,7.450580596923828e-09,0.0,-0.13599532842636108,0.6083488464355469,0.011500972635498319,-0.5118790864944458,0.09411001950502396,-0.6478744149208069,0.6118775606155396,2.3143835067749023,0.9976263046264648,,,,,,,
4269096000.0,85.01,-2.4800000190734863,12031147008.0,1692.9523850067133,25.0,-0.010447941720485687,106496.0,60.142473220825195,4.829470157119431e-15,0.0,2.578096866607666,-0.025780972093343735,0.1464506834745407,-0.025780968368053436,-3.725290298461914e-09,0.0,-0.03767402470111847,0.5399566888809204,0.021670415472782256,-0.5193706750869751,0.09950808435678482,-0.5570446848869324,0.5459039807319641,2.4194419384002686,0.997065544128418,,,,,,,
4318540000.0,84.78,-2.259999990463257,12031147008.0,1819.7633721849063,26.0,-0.01586606353521347,110592.0,62.39331531524658,4.553649124439119e-15,0.0,2.597551107406616,-0.025975506752729416,0.18167948722839355,-0.025975510478019714,3.725290298461914e-09,0.0,-0.08140502125024796,0.5973435640335083,0.031699188036010684,-0.5590806603431702,0.10157196968793869,-0.6404856443405151,0.6070423722267151,2.2508420944213867,0.9970662593841553,,,,,,,
4367908000.0,78.79,-2.380000114440918,12031147008.0,1742.4477483813268,27.0,-0.01159124355763197,114688.0,64.74403142929077,4.9855952699573436e-15,0.0,2.576446533203125,-0.0257644671946764,0.17038363218307495,-0.02576446533203125,-1.862645149230957e-09,0.0,-0.01220221072435379,0.5836964249610901,0.026495447662916893,-0.609842836856842,0.10743419080972672,-0.6220450401306152,0.5915862321853638,2.3507161140441895,0.996910572052002,,,,,,,
4417540000.0,76.59,-1.8700000047683716,12031147008.0,1717.2975951453086,28.0,-0.010823318734765053,118784.0,67.12917423248291,4.5814047000547475e-15,0.0,2.6274681091308594,-0.026274701580405235,0.160781592130661,-0.026274681091308594,-2.0489096641540527e-08,0.0,0.014656079933047295,0.5669451951980591,0.08895924794539989,-0.7529025077819824,0.1269441395998001,-0.7382463812828064,0.5939804911613464,2.3851428031921387,0.9979250431060791,,,,,,,
4467172000.0,84.4,-2.369999885559082,12031147008.0,1782.6587472296203,29.0,-0.01776159554719925,122880.0,69.42686581611633,4.404462905505113e-15,0.0,2.6403024196624756,-0.026403026655316353,0.24358384311199188,-0.026403022930026054,-3.725290298461914e-09,0.0,-0.08879373222589493,0.6923874616622925,0.049846683723235974,-0.8678297400474548,0.1171516478061676,-0.9566234946250916,0.7103173136711121,2.297691583633423,0.997122049331665,,,,,,,
4516540000.0,83.61,-2.309999942779541,12031147008.0,1778.6887634364239,30.0,-0.010215049609541893,126976.0,71.72968578338623,4.376707329889484e-15,0.0,2.6542773246765137,-0.026542773470282555,0.21833264827728271,-0.026542773470282555,0.0,0.0,0.12595586478710175,0.6487705111503601,0.02286398881027496,-1.1433652639389038,0.14828452467918396,-1.0174094438552856,0.656316876411438,2.3028199672698975,0.9972198009490967,,,,,,,
4566172000.0,82.71,-2.0399999618530273,12031147008.0,1776.263274412226,31.0,-0.011187656782567501,131072.0,74.0356502532959,4.675079767757495e-15,0.0,2.6631393432617188,-0.026631386950612068,0.2206343710422516,-0.026631392538547516,5.587935447692871e-09,0.0,0.07334038615226746,0.6603002548217773,0.14963834350193228,-1.0643033981323242,0.18252579867839813,-0.9909631013870239,0.7160438895225525,2.305964469909668,0.9970881938934326,,,,,,,
,,,,,,,,,,,,,,,,,,,,,,,,,,0.0020014969632029533,0.20793208479881287,0.19620923697948456,0.0020014969632029533,0.20793208479881287,0.19620923697948456,
,,,,,,,,,,,,,,,,,,,,,,,,,,0.0004329910152591765,0.18593476712703705,0.17962810397148132,0.0004329910152591765,0.18593476712703705,0.17962810397148132,
,,,,,,,,,,,,,,,,,,,,,,,,,,0.000717306393198669,0.17577430605888367,0.17175084352493286,0.000717306393198669,0.17577430605888367,0.17175084352493286,
,,,,,,,,,,,,,,,,,,,,,,,,,,0.0004225273441988975,0.16751155257225037,0.16375327110290527,0.0004225273441988975,0.16751155257225037,0.16375327110290527,
,,,,,,,,,,,,,,,,,,,,,,,,,,0.0005280445911921561,0.16607621312141418,0.16076771914958954,0.0005280445911921561,0.16607621312141418,0.16076771914958954,
,,,,,,,,,,,,,,,,,,,,,,,,,,0.0006276733474805951,0.15833841264247894,0.15556326508522034,0.0006276733474805951,0.15833841264247894,0.15556326508522034,
,,,,,,,,,,,,,,,,,,,,,,,,,,,,,,,,-1.98
4584956000.0,80.08,-1.7899999618530273,11990518784.0,16.997311463920646,32.0,-0.010536936111748219,135168.0,315.01493740081787,3.25434124093249e-15,0.0,2.688110113143921,-0.02688109315931797,0.14417490363121033,-0.026881100609898567,7.450580596923828e-09,0.0,0.02034948766231537,0.5366619229316711,0.36405772981330975,-0.7254735231399536,0.32805097103118896,-0.705124020576477,0.6729641556739807,240.97928714752197,0.9977898597717285,,,,,,,
4584956000.0,80.16,-1.8799999952316284,12041169408.0,1753.6711449589686,33.0,-0.013720836490392685,139264.0,317.3506090641022,3.490263633665336e-15,0.0,2.6883552074432373,-0.026883555576205254,0.16419078409671783,-0.026883551850914955,-3.725290298461914e-09,0.0,-0.012712396681308746,0.5729748010635376,0.3874990404941788,-0.7114010453224182,0.32828354835510254,-0.7241134643554688,0.7321198582649231,2.3356716632843018,0.9972677230834961,,,,,,,
4584956000.0,83.71,-2.4200000762939453,12041169408.0,1755.612862138786,34.0,-0.01311241090297699,143360.0,319.6836974620819,3.3792413312028202e-15,0.0,2.6860265731811523,-0.026860259473323822,0.1544913351535797,-0.02686026506125927,4.6566128730773926e-09,0.0,0.010193822905421257,0.5558364391326904,0.3645180255428654,-0.7122276425361633,0.3435452878475189,-0.7020338177680969,0.6972610950469971,2.3330883979797363,0.9971299171447754,,,,,,,
4584956000.0,81.73,-2.440000057220459,12041169408.0,1787.6970939607427,35.0,-0.011024382896721363,147456.0,321.97491335868835,3.5110803153770576e-15,0.0,2.6856167316436768,-0.02685617469251156,0.17012062668800354,-0.02685616724193096,-7.450580596923828e-09,0.0,-0.0013341624289751053,0.5833716988563538,0.30669551188433053,-0.7146459817886353,0.31464195251464844,-0.7159801721572876,0.7006213665008545,2.2912158966064453,0.9972813129425049,,,,,,,
4584956000.0,84.02,-2.0399999618530273,12041169408.0,1736.2275514325956,36.0,-0.010930608958005905,151552.0,324.33405113220215,3.559652572704408e-15,0.0,2.6872472763061523,-0.02687246911227703,0.13315898180007935,-0.02687247283756733,3.725290298461914e-09,0.0,0.043802112340927124,0.5142605304718018,0.40253021487262086,-0.7028389573097229,0.35069456696510315,-0.6590368747711182,0.6653118133544922,2.359137773513794,0.9971792697906494,,,,,,,
4584956000.0,86.31,-2.369999885559082,12041169408.0,1686.2677167672923,37.0,-0.015363432466983795,155648.0,326.7630841732025,3.524958103184872e-15,0.0,2.6866273880004883,-0.026866279542446136,0.19694575667381287,-0.02686627395451069,-5.587935447692871e-09,0.0,-0.013173975050449371,0.6275460720062256,0.3490599707146196,-0.7753304243087769,0.4039302170276642,-0.788504421710968,0.7778128981590271,2.429033041000366,0.9973502159118652,,,,,,,
4584956000.0,82.73,-2.4600000381469727,12041169408.0,1778.6826863903855,38.0,-0.014826653525233269,159744.0,329.0659120082855,3.3861802251067274e-15,0.0,2.685730457305908,-0.026857296004891396,0.16930532455444336,-0.026857303455471992,7.450580596923828e-09,0.0,-0.015223340131342411,0.5817744731903076,0.3773334712368772,-0.6951731443405151,0.34863099455833435,-0.7103964686393738,0.7372705936431885,2.302827835083008,0.9974603652954102,,,,,,,
4584956000.0,82.58,-2.490000009536743,12041169408.0,1776.8967311056933,39.0,-0.013593889772891998,163840.0,331.37105441093445,3.1225022567582528e-15,0.0,2.689387559890747,-0.02689388208091259,0.1413062959909439,-0.026893874630331993,-7.450580596923828e-09,0.0,-0.004657581448554993,0.5316576957702637,0.5290052380025336,-0.7723844051361084,0.4451944828033447,-0.777042031288147,0.7746831178665161,2.305142402648926,0.9977362155914307,,,,,,,
4584956000.0,84.12,-2.0799999237060547,12041169408.0,1797.1871593242608,40.0,-0.006995449773967266,167936.0,333.6501715183258,3.2404634531246757e-15,0.0,2.6839652061462402,-0.026839662343263626,0.11920873820781708,-0.02683965116739273,-1.1175870895385742e-08,0.0,0.09798499941825867,0.47840601205825806,0.5008063237972248,-0.8028027415275574,0.5090072751045227,-0.7048177719116211,0.6771144270896912,2.2791171073913574,0.9971201419830322,,,,,,,
4584956000.0,89.78,-1.7999999523162842,12041169408.0,1779.0149591651862,41.0,-0.012010319158434868,172032.0,335.9525692462921,3.524958103184872e-15,0.0,2.680025577545166,-0.026800239458680153,0.16706188023090363,-0.026800254359841347,1.4901161193847656e-08,0.0,0.06834422796964645,0.5740499496459961,0.4590697818377263,-0.7674076557159424,0.5000547766685486,-0.6990634202957153,0.7805110216140747,2.3023977279663086,0.997298002243042,,,,,,,
4584956000.0,86.79,-2.1500000953674316,12041169408.0,1745.2725088026202,42.0,-0.01420677825808525,176128.0,338.299480676651,3.3514857555871913e-15,0.0,2.676138401031494,-0.02676137536764145,0.12583467364311218,-0.026761382818222046,6.51925802230835e-09,0.0,-0.029409775510430336,0.5008648633956909,0.5431342180268361,-0.6970388889312744,0.48109766840934753,-0.726448655128479,0.7410137057304382,2.3469114303588867,0.9973325729370117,,,,,,,
4584956000.0,80.35,-2.4800000190734863,12041169408.0,1801.8990129650663,43.0,-0.012311114929616451,180224.0,340.57263803482056,3.635980405647388e-15,0.0,2.674687385559082,-0.026746872812509537,0.1706925928592682,-0.026746872812509537,0.0,0.0,0.04346152022480965,0.582734227180481,0.5426301788473997,-0.7084697484970093,0.5359628796577454,-0.6650081872940063,0.8616617321968079,2.2731573581695557,0.9972646236419678,,,,,,,
4584956000.0,78.75,-2.1600000858306885,12041169408.0,1816.1690153709537,44.0,-0.012088334187865257,184320.0,342.8279347419739,3.3306690738754696e-15,0.0,2.6672849655151367,-0.026672855019569397,0.13354885578155518,-0.02667284943163395,-5.587935447692871e-09,0.0,0.10192441940307617,0.5067265033721924,0.6310776680579526,-0.8692094087600708,0.6402134895324707,-0.7672849893569946,0.8342691659927368,2.2552967071533203,0.9973602294921875,,,,,,,
4584956000.0,80.03,-2.009999990463257,12041169408.0,1750.5454890045444,45.0,-0.011940047144889832,188416.0,345.1677768230438,3.4833247397614286e-15,0.0,2.667165517807007,-0.026671642437577248,0.172738179564476,-0.026671655476093292,1.30385160446167e-08,0.0,0.10279196500778198,0.5787848830223083,0.5671828733848655,-0.7666084170341492,0.6403598785400391,-0.6638164520263672,0.8797615766525269,2.3398420810699463,0.9972808361053467,,,,,,,
4584956000.0,80.62,-1.809999942779541,12041169408.0,1798.1156257856348,46.0,-0.007869992405176163,192512.0,347.44571709632874,3.622102617839573e-15,0.0,2.660249710083008,-0.026602476835250854,0.12229559570550919,-0.026602497324347496,2.0489096641540527e-08,0.0,0.08601819723844528,0.48708316683769226,0.5046142722300873,-0.5618330240249634,0.5233096480369568,-0.4758148193359375,0.6920402646064758,2.277940273284912,0.9973263740539551,,,,,,,
4584956000.0,81.74,-1.7400000095367432,12041169408.0,1796.8954247012455,47.0,-0.014116317965090275,196608.0,349.72520422935486,3.823330541052883e-15,0.0,2.655975818634033,-0.026559773832559586,0.15180963277816772,-0.026559757068753242,-1.7695128917694092e-08,0.0,-0.08561979234218597,0.5443903803825378,0.41704668977830084,-0.37101444602012634,0.399110347032547,-0.4566342234611511,0.7130065560340881,2.279487133026123,0.997239351272583,,,,,,,
4584956000.0,79.58,-1.7100000381469727,12041169408.0,1763.487361201299,48.0,-0.008434115909039974,200704.0,352.0478746891022,3.8528208401444886e-15,0.0,2.6526427268981934,-0.026526428759098053,0.09858794510364532,-0.026526426896452904,-1.862645149230957e-09,0.0,-0.01705794967710972,0.4437713325023651,0.3630145157284387,-0.28399938344955444,0.3042968511581421,-0.3010573387145996,0.5560252070426941,2.3226704597473145,0.9971649646759033,,,,,,,
4584956000.0,78.21,-1.7300000190734863,12041169408.0,1735.573309184637,49.0,-0.013550862669944763,204800.0,354.407901763916,3.740063814205996e-15,0.0,2.652894973754883,-0.026528948917984962,0.15387870371341705,-0.026528948917984962,0.0,0.0,-0.10599453747272491,0.5446053147315979,0.36318698465023824,-0.27622172236442566,0.3021104335784912,-0.38221627473831177,0.6824579834938049,2.3600270748138428,0.9981677532196045,,,,,,,
4584956000.0,81.0,-2.2699999809265137,12041169408.0,1798.4275242321112,50.0,-0.011254189535975456,208896.0,356.68544697761536,3.741798537681973e-15,0.0,2.6491127014160156,-0.026491131633520126,0.156707763671875,-0.02649112604558468,-6.51925802230835e-09,0.0,-0.05428651347756386,0.5572649836540222,0.4178437051428272,-0.37530162930488586,0.4433177411556244,-0.4295881390571594,0.7303683757781982,2.277545213699341,0.9974825382232666,,,,,,,
4584956000.0,80.23,-2.0799999237060547,12041169408.0,1752.4220109144694,51.0,-0.011056143790483475,212992.0,359.0227835178375,3.5110803153770576e-15,0.0,2.6576218605041504,-0.0265762060880661,0.12699060142040253,-0.026576217263936996,1.0244548320770264e-08,0.0,0.0031413636170327663,0.5040172338485718,0.5573191242105597,-0.5367687940597534,0.5547817945480347,-0.5336273908615112,0.7575302124023438,2.337336540222168,0.9994471073150635,,,,,,,
4584956000.0,78.69,-1.4500000476837158,12041169408.0,1761.2065755219946,52.0,-0.010731503367424011,217088.0,361.3484618663788,3.712308238590367e-15,0.0,2.6542880535125732,-0.026542890816926956,0.12603601813316345,-0.02654287964105606,-1.1175870895385742e-08,0.0,0.04481937736272812,0.5001243352890015,0.6320448382078403,-0.6850864887237549,0.6567553281784058,-0.6402671337127686,0.8244806528091431,2.3256783485412598,0.9973762035369873,,,,,,,
4584956000.0,86.25,-2.1600000858306885,12041169408.0,1811.2687057616918,53.0,-0.01344786025583744,221184.0,363.6098601818085,3.665470704738993e-15,0.0,2.6631312370300293,-0.026631327345967293,0.15910851955413818,-0.0266313124448061,-1.4901161193847656e-08,0.0,0.06997419893741608,0.5598188638687134,0.5901226273394364,-0.7663533091545105,0.7146078944206238,-0.6963790655136108,0.8744209408760071,2.2613983154296875,0.9973645210266113,,,,,,,
4584956000.0,83.16,-2.190000057220459,12041169408.0,1815.04423057703,54.0,-0.01024901308119297,225280.0,365.8665544986725,3.3792413312028202e-15,0.0,2.675896167755127,-0.026758968830108643,0.13850431144237518,-0.026758961379528046,-7.450580596923828e-09,0.0,0.05678870901465416,0.5233073234558105,0.606877815464792,-0.6918226480484009,0.663962185382843,-0.6350339651107788,0.834628164768219,2.2566943168640137,0.9971868991851807,,,,,,,
4584956000.0,82.45,-2.2100000381469727,12041169408.0,1816.0828131611827,55.0,-0.013642956502735615,229376.0,368.1219582557678,3.2491370705045597e-15,0.0,2.672471523284912,-0.026724709197878838,0.15930649638175964,-0.026724714785814285,5.587935447692871e-09,0.0,-0.019403496757149696,0.5641934275627136,0.5072361809249928,-0.6084097623825073,0.5766492486000061,-0.6278132200241089,0.8037270903587341,2.255403757095337,0.9969906806945801,,,,,,,
4584956000.0,80.33,-2.319999933242798,12041169408.0,1782.5707027605051,56.0,-0.012306250631809235,233472.0,370.4197633266449,3.157196726277789e-15,0.0,2.6753745079040527,-0.026753734797239304,0.10856021195650101,-0.02675374411046505,9.313225746154785e-09,0.0,0.0077858734875917435,0.46595364809036255,0.5673051413658912,-0.5196363925933838,0.5470170378684998,-0.5118505358695984,0.7083564400672913,2.297805070877075,0.9974007606506348,,,,,,,
4584956000.0,78.15,-1.9500000476837158,12041169408.0,1794.2024870049875,57.0,-0.011640399694442749,237568.0,372.7026717662811,3.2855662635000726e-15,0.0,2.676665782928467,-0.026766661554574966,0.1180017963051796,-0.026766657829284668,-2.7939677238464355e-09,0.0,-0.020623985677957535,0.4854232966899872,0.5689033710806319,-0.42055246233940125,0.47284263372421265,-0.4411764442920685,0.7393214106559753,2.2829084396362305,0.9972376823425293,,,,,,,
4584956000.0,80.1,-1.6799999475479126,12041169408.0,1797.917098646225,58.0,-0.011206364259123802,241664.0,374.980863571167,3.3115871156397247e-15,0.0,2.6807267665863037,-0.02680727280676365,0.10414177924394608,-0.0268072672188282,-5.587935447692871e-09,0.0,-0.027484985068440437,0.45560815930366516,0.5281279346017042,-0.36668092012405396,0.4473296105861664,-0.39416593313217163,0.6632532477378845,2.2781918048858643,0.9970850944519043,,,,,,,
4584956000.0,77.08,-1.909999966621399,12041169408.0,1797.5457542179606,59.0,-0.011188896372914314,245760.0,377.259526014328,3.4677122284776374e-15,0.0,2.6790835857391357,-0.026790838688611984,0.1250905841588974,-0.026790834963321686,-3.725290298461914e-09,0.0,-0.004788709804415703,0.5002192854881287,0.6095043989143927,-0.43014371395111084,0.5164256691932678,-0.4349324107170105,0.8004834651947021,2.2786624431610107,0.9974009990692139,,,,,,,
4584956000.0,80.94,-2.5199999809265137,12041169408.0,1800.0961438880822,60.0,-0.018678445369005203,249856.0,379.5349600315094,3.696695727306576e-15,0.0,2.6658239364624023,-0.026658233255147934,0.1346925050020218,-0.02665823884308338,5.587935447692871e-09,0.0,-0.09714692831039429,0.5099126696586609,0.6043926142560936,-0.5288306474685669,0.5492596626281738,-0.6259775757789612,0.8107064962387085,2.2754340171813965,0.9973387718200684,,,,,,,
4584956000.0,80.5,-2.2899999618530273,12041169408.0,1818.8193532322296,61.0,-0.008789125829935074,253952.0,381.7869703769684,4.378442053365461e-15,0.0,2.6566576957702637,-0.02656656503677368,0.13041815161705017,-0.026566576212644577,1.1175870895385742e-08,0.0,0.07103857398033142,0.5058184266090393,0.5342349241169402,-0.6523927450180054,0.6145356297492981,-0.5813541412353516,0.741158664226532,2.2520103454589844,0.9972596168518066,,,,,,,
4584956000.0,81.84,-1.850000023841858,12041169408.0,1775.236520964587,62.0,-0.009939759969711304,258048.0,384.09426856040955,4.236194728335363e-15,0.0,2.650256633758545,-0.026502568274736404,0.14203713834285736,-0.026502566412091255,-9.313225746154785e-10,0.0,0.05209704115986824,0.5304986834526062,0.47169939010870665,-0.6551851034164429,0.5994932651519775,-0.6030880808830261,0.7298671007156372,2.307298183441162,0.9974448680877686,,,,,,,
4631508000.0,83.07,-1.9199999570846558,12041169408.0,1759.7060289339665,63.0,-0.008817652240395546,262144.0,386.4219300746918,4.475586568020162e-15,0.0,2.6353158950805664,-0.026353145018219948,0.09512591361999512,-0.026353158056735992,1.30385160446167e-08,0.0,0.09122589975595474,0.4265841841697693,0.6024088662853724,-0.5949304103851318,0.5678833723068237,-0.5037044882774353,0.676529049873352,2.3276615142822266,0.9977889060974121,,,,,,,
,,,,,,,,,,,,,,,,,,,,,,,,,,0.0060919420793652534,0.19310802221298218,0.15620161592960358,0.0060919420793652534,0.19310802221298218,0.15620161592960358,
,,,,,,,,,,,,,,,,,,,,,,,,,,0.0029123020358383656,0.15068800747394562,0.1363500952720642,0.0029123020358383656,0.15068800747394562,0.1363500952720642,
,,,,,,,,,,,,,,,,,,,,,,,,,,0.00267883762717247,0.13832256197929382,0.13784994184970856,0.00267883762717247,0.13832256197929382,0.13784994184970856,
,,,,,,,,,,,,,,,,,,,,,,,,,,0.0022434331476688385,0.1219373568892479,0.12144066393375397,0.0022434331476688385,0.1219373568892479,0.12144066393375397,
,,,,,,,,,,,,,,,,,,,,,,,,,,0.0019310665084049106,0.11529645323753357,0.11487307399511337,0.0019310665084049106,0.11529645323753357,0.11487307399511337,
,,,,,,,,,,,,,,,,,,,,,,,,,,0.001509784022346139,0.10835162550210953,0.11075234413146973,0.001509784022346139,0.10835162550210953,0.11075234413146973,
,,,,,,,,,,,,,,,,,,,,,,,,,,,,,,,,-1.61
4633668000.0,77.73,-1.7599999904632568,11990521856.0,16.995363994436055,64.0,-0.013856470584869385,266240.0,627.4288306236267,5.6604027021123215e-15,0.0,2.6006855964660645,-0.026006855070590973,0.11935578286647797,-0.026006855070590973,0.0,0.0,0.06184561550617218,0.4847102463245392,0.7051065853247735,-0.6873209476470947,0.7086880207061768,-0.625475287437439,0.8925851583480835,241.00690054893494,0.9972803592681885,,,,,,,
4633668000.0,76.87,-1.9199999570846558,12041169408.0,1755.1788062690805,65.0,-0.010210471227765083,270336.0,629.7624959945679,5.421010862427522e-15,0.0,2.5801687240600586,-0.025801679119467735,0.08225543051958084,-0.025801686570048332,7.450580596923828e-09,0.0,0.04227106273174286,0.4034399092197418,0.6281061980378524,-0.5312398076057434,0.49881845712661743,-0.48896875977516174,0.6615602374076843,2.333665370941162,0.9969439506530762,,,,,,,
4633668000.0,78.51,-1.5800000429153442,12041169408.0,1706.990146478357,66.0,-0.007703392766416073,274432.0,632.1620411872864,5.578870698741412e-15,0.0,2.5251333713531494,-0.025251347571611404,0.08735184371471405,-0.02525133267045021,-1.4901161193847656e-08,0.0,0.07627244293689728,0.4110078513622284,0.6279931595245051,-0.542579174041748,0.5543940663337708,-0.46630674600601196,0.6738677024841309,2.399545192718506,0.9974493980407715,,,,,,,
4633668000.0,76.41,-1.3700000047683716,12041169408.0,1722.2515577071945,67.0,-0.007491999305784702,278528.0,634.5403232574463,5.821731985378165e-15,0.0,2.5204360485076904,-0.025204356759786606,0.07319144904613495,-0.025204360485076904,4.190951585769653e-09,0.0,0.006592575926333666,0.38259008526802063,0.6338426317226074,-0.3537048101425171,0.4756965637207031,-0.347112238407135,0.6322659850120544,2.378282070159912,0.9973962306976318,,,,,,,
4633668000.0,71.27,-1.2899999618530273,12041169408.0,1802.5607242530098,68.0,-0.00901646539568901,282624.0,636.812646150589,6.324801793411439e-15,0.0,2.384018659591675,-0.02384018525481224,0.08025489002466202,-0.02384018525481224,0.0,0.0,0.05663786828517914,0.3966614902019501,0.5881686911793975,-0.40472036600112915,0.5191441774368286,-0.3480824828147888,0.6181023120880127,2.2723228931427,0.9973444938659668,,,,,,,
4633668000.0,73.74,-1.1799999475479126,12041169408.0,1818.0910093762568,69.0,-0.007191779091954231,286720.0,639.0655586719513,7.134917656692608e-15,0.0,2.342679738998413,-0.023426789790391922,0.05069755017757416,-0.02342679724097252,8.381903171539307e-09,0.0,0.04531586170196533,0.31522345542907715,0.6512484881915578,-0.3392518162727356,0.45376428961753845,-0.29393595457077026,0.5337777137756348,2.2529125213623047,0.9973363876342773,,,,,,,
4633668000.0,74.83,-1.3700000047683716,12041169408.0,1780.0778125806248,70.0,-0.009651712141931057,290816.0,641.3665816783905,6.9926703316625094e-15,0.0,2.2515156269073486,-0.022515153512358665,0.07931286096572876,-0.022515155375003815,1.862645149230957e-09,0.0,-0.024301091209053993,0.3975849449634552,0.5827598673524041,-0.29865148663520813,0.412366658449173,-0.3229525685310364,0.6155125498771667,2.301023006439209,0.9972608089447021,,,,,,,
4633668000.0,71.98,-1.4199999570846558,12041169408.0,1755.0800078417326,71.0,-0.009202690795063972,294912.0,643.7003784179688,8.28503932126523e-15,0.0,2.1750259399414062,-0.021750260144472122,0.05641789734363556,-0.021750258281826973,-1.862645149230957e-09,0.0,0.027498643845319748,0.3348238468170166,0.5636104971217484,-0.23460131883621216,0.3624744415283203,-0.20710265636444092,0.5068496465682983,2.333796739578247,0.9975523948669434,,,,,,,
4633668000.0,72.81,-1.6100000143051147,12041169408.0,1815.9820303087383,72.0,-0.013292459771037102,299008.0,645.9559073448181,6.239800343088575e-15,0.0,2.206082344055176,-0.02206081710755825,0.08544540405273438,-0.022060822695493698,5.587935447692871e-09,0.0,-0.07465806603431702,0.40664154291152954,0.5748681669564666,-0.2295767366886139,0.37905827164649963,-0.3042348027229309,0.6236628890037537,2.2555289268493652,0.9972174167633057,,,,,,,
4633668000.0,74.56,-1.7400000095367432,12041169408.0,1733.0047913206263,73.0,-0.008284611627459526,303104.0,648.319432258606,7.391656731137175e-15,0.0,2.233180284500122,-0.02233181521296501,0.06480096280574799,-0.022331802174448967,-1.210719347000122e-08,0.0,-0.042231008410453796,0.35756075382232666,0.5278249650350144,-0.15910838544368744,0.3058358132839203,-0.20133939385414124,0.5203532576560974,2.363524913787842,0.9973549842834473,,,,,,,
4633668000.0,76.22,-1.399999976158142,12041169408.0,1730.2396101996287,74.0,-0.007597425952553749,307200.0,650.6867344379425,7.049916206369744e-15,0.0,2.2701988220214844,-0.022701993584632874,0.0720394030213356,-0.022701987996697426,-5.587935447692871e-09,0.0,-0.008199782110750675,0.37953490018844604,0.4607350379758325,-0.16028611361980438,0.30794069170951843,-0.16848589479923248,0.5168334245681763,2.367302179336548,0.997462272644043,,,,,,,
4633668000.0,74.19,-1.5199999809265137,12041169408.0,1770.9014538407619,75.0,-0.011098774150013924,311296.0,652.9996807575226,7.728193085476676e-15,0.0,2.2236359119415283,-0.022236354649066925,0.08410108834505081,-0.022236358374357224,3.725290298461914e-09,0.0,-0.02146146073937416,0.4096126854419708,0.463897397964934,-0.17694544792175293,0.3422580361366272,-0.1984069049358368,0.5594347715377808,2.312946319580078,0.9973547458648682,,,,,,,
4633668000.0,70.45,-1.399999976158142,12041169408.0,1772.6336691526376,76.0,-0.008427978493273258,315392.0,655.3103668689728,7.0915495697931874e-15,0.0,2.230543613433838,-0.022305436432361603,0.07151765376329422,-0.022305436432361603,-9.313225746154785e-10,0.0,-0.030738139525055885,0.37699493765830994,0.6545620674676168,-0.22606238722801208,0.4024181365966797,-0.2568005323410034,0.6414318084716797,2.3106861114501953,0.9967789649963379,,,,,,,
4633668000.0,75.1,-1.100000023841858,12041169408.0,1750.9431707600456,77.0,-0.005985927768051624,319488.0,657.6496775150299,7.259817746962938e-15,0.0,2.1883835792541504,-0.021883826702833176,0.05251288414001465,-0.021883836016058922,9.313225746154785e-09,0.0,0.008041100576519966,0.3240165710449219,0.6330854952452662,-0.24578768014907837,0.3656306266784668,-0.23774658143520355,0.534915030002594,2.339310646057129,0.9972131252288818,,,,,,,
4633668000.0,76.18,-0.9300000071525574,12041169408.0,1795.5899832072387,78.0,-0.007297084201127291,323584.0,659.9308218955994,6.978792543854695e-15,0.0,2.2321581840515137,-0.022321578115224838,0.059383418411016464,-0.022321581840515137,3.725290298461914e-09,0.0,0.0197211392223835,0.3441029191017151,0.6702067823938558,-0.30271321535110474,0.47495153546333313,-0.28299206495285034,0.5991940498352051,2.281144380569458,0.9973554611206055,,,,,,,
4633668000.0,71.48,-1.0,12041169408.0,1775.2634869643725,79.0,-0.008017893880605698,327680.0,662.2380850315094,7.337880303381894e-15,0.0,2.238717555999756,-0.022387182340025902,0.0561591275036335,-0.022387174889445305,-7.450580596923828e-09,0.0,0.01602138578891754,0.33479687571525574,0.7365524695464845,-0.3215736150741577,0.5055557489395142,-0.305552214384079,0.652280330657959,2.307263135910034,0.9973349571228027,,,,,,,
4633668000.0,72.72,-1.2000000476837158,12041169408.0,1806.4414938775046,80.0,-0.009681856259703636,331776.0,664.505526304245,5.901529265273098e-15,0.0,2.312915086746216,-0.02312915399670601,0.07011529803276062,-0.02312915027141571,-3.725290298461914e-09,0.0,0.031834762543439865,0.373163640499115,0.7045263089759508,-0.39398181438446045,0.6112140417098999,-0.3621470332145691,0.6864991188049316,2.2674412727355957,0.9971597194671631,,,,,,,
4633668000.0,72.14,-1.5299999713897705,12041169408.0,1717.1134228018207,81.0,-0.008750257082283497,335872.0,666.8909249305725,6.376843497690743e-15,0.0,2.2853174209594727,-0.022853178903460503,0.06121545284986496,-0.022853173315525055,-5.587935447692871e-09,0.0,0.023881439119577408,0.34912797808647156,0.7813762274347404,-0.4099385142326355,0.6328795552253723,-0.386057049036026,0.7466824650764465,2.3853986263275146,0.998070478439331,,,,,,,
4633668000.0,70.02,-1.3799999952316284,12041169408.0,1793.1457248857225,82.0,-0.010064489208161831,339968.0,669.1751787662506,6.75327849197771e-15,0.0,2.336498498916626,-0.023364979773759842,0.07202677428722382,-0.02336498536169529,5.587935447692871e-09,0.0,-0.004129810258746147,0.3795677125453949,0.7367996727743348,-0.315120667219162,0.6000498533248901,-0.3192504644393921,0.7398540377616882,2.2842538356781006,0.9972522258758545,,,,,,,
4633668000.0,71.18,-1.4199999570846558,12041169408.0,1756.6781049982064,83.0,-0.00758736114948988,344064.0,671.506852388382,6.463579671489583e-15,0.0,2.375516414642334,-0.02375514805316925,0.06731467694044113,-0.023755162954330444,1.4901161193847656e-08,0.0,0.07030390948057175,0.3601644039154053,0.7286325143736864,-0.3195202350616455,0.6146059632301331,-0.24921634793281555,0.6913880109786987,2.3316736221313477,0.9974377155303955,,,,,,,
4633668000.0,73.47,-0.9300000071525574,12041169408.0,1761.1385102930515,84.0,-0.005580472759902477,348160.0,673.8326206207275,5.906733435701028e-15,0.0,2.3820178508758545,-0.023820172995328903,0.0686546340584755,-0.02382017858326435,5.587935447692871e-09,0.0,0.052882540971040726,0.36680448055267334,0.762424667268973,-0.3772555887699127,0.6495015621185303,-0.3243730664253235,0.7525476217269897,2.325768232345581,0.9971973896026611,,,,,,,
4633668000.0,73.18,-0.7799999713897705,12041169408.0,1817.6547445382128,85.0,-0.006188547238707542,352256.0,676.0860738754272,5.263151026113633e-15,0.0,2.457469940185547,-0.02457471191883087,0.05119271203875542,-0.024574698880314827,-1.30385160446167e-08,0.0,0.05458224564790726,0.3153259754180908,0.7713115527746949,-0.29237282276153564,0.622270941734314,-0.23779058456420898,0.6593828797340393,2.253453254699707,0.9977226257324219,,,,,,,
4633668000.0,74.21,-0.7400000095367432,12041169408.0,1814.2206182991204,86.0,-0.0034550128038972616,356352.0,678.3437926769257,6.534703334004632e-15,0.0,2.4340877532958984,-0.024340873584151268,0.06626851856708527,-0.024340877309441566,3.725290298461914e-09,0.0,0.06374868750572205,0.3584752082824707,0.6417782305494735,-0.2223135530948639,0.5253691077232361,-0.15856486558914185,0.598939836025238,2.257718801498413,0.9968063831329346,,,,,,,
4633668000.0,76.07,-0.949999988079071,12041169408.0,1762.8679498212953,87.0,-0.006676084361970425,360448.0,680.6672792434692,5.381112222480056e-15,0.0,2.488466262817383,-0.024884648621082306,0.07956429570913315,-0.02488466165959835,1.30385160446167e-08,0.0,-0.024689141660928726,0.3981930911540985,0.6479584315597539,-0.10705215483903885,0.5062313079833984,-0.13174130022525787,0.6711147427558899,2.323486566543579,0.9975950717926025,,,,,,,
4633668000.0,75.37,-0.8700000047683716,12041169408.0,1735.5410483333678,88.0,-0.006807337515056133,364544.0,683.0273501873016,5.483460907562687e-15,0.0,2.526762008666992,-0.025267615914344788,0.06853386759757996,-0.025267619639635086,3.725290298461914e-09,0.0,-0.02666248008608818,0.3693103492259979,0.6620677242966259,-0.09719967842102051,0.5260361433029175,-0.12386216223239899,0.6352967619895935,2.3600709438323975,0.9971103668212891,,,,,,,
4633668000.0,74.41,-1.1200000047683716,12041169408.0,1768.8982875739819,89.0,-0.007416710257530212,368640.0,685.3429157733917,4.952635523913784e-15,0.0,2.54498028755188,-0.025449801236391068,0.06393160670995712,-0.025449803099036217,1.3969838619232178e-09,0.0,-0.017992502078413963,0.3571702837944031,0.6593773120067125,-0.057983532547950745,0.5145422220230103,-0.07597603648900986,0.6119819283485413,2.315565586090088,0.997607946395874,,,,,,,
4633668000.0,74.31,-1.1200000047683716,12041169408.0,1790.503566182904,90.0,-0.0067043122835457325,372736.0,687.6305403709412,5.290906601729262e-15,0.0,2.5340654850006104,-0.025340665131807327,0.09553592652082443,-0.025340653955936432,-1.1175870895385742e-08,0.0,-0.023372875526547432,0.43654561042785645,0.4214232924311452,-0.04008861631155014,0.4422587454319,-0.06346148997545242,0.573917031288147,2.2876245975494385,0.9973948001861572,,,,,,,
4633668000.0,74.78,-0.9300000071525574,12041169408.0,1783.5318938522598,91.0,-0.003480495186522603,376832.0,689.9271070957184,5.257946855685702e-15,0.0,2.571746826171875,-0.025717465206980705,0.06563376635313034,-0.025717467069625854,1.862645149230957e-09,0.0,-0.013753609731793404,0.36209169030189514,0.5231468692526522,-0.02003346011042595,0.4291793406009674,-0.0337870717048645,0.524355947971344,2.2965667247772217,0.9974677562713623,,,,,,,
4633668000.0,71.98,-0.6399999856948853,12041169408.0,1748.3957160518603,92.0,-0.005416130647063255,380928.0,692.2698261737823,5.054984208996416e-15,0.0,2.560896635055542,-0.025608975440263748,0.05696794390678406,-0.025608966127038002,-1.0244548320770264e-08,0.0,-0.06314288824796677,0.3316258490085602,0.6082167270678421,0.033783815801143646,0.3978203237056732,-0.029359066858887672,0.5298164486885071,2.342719078063965,0.9975979328155518,,,,,,,
4633668000.0,75.03,-1.0199999809265137,12041169408.0,1808.614606874409,93.0,-0.010003087110817432,385024.0,694.5345430374146,5.096617572419859e-15,0.0,2.5766615867614746,-0.02576662041246891,0.0826721042394638,-0.025766614824533463,-5.587935447692871e-09,0.0,-0.08068756014108658,0.3985881805419922,0.6502533494102648,-0.03359817713499069,0.46044260263442993,-0.11428573727607727,0.6739808917045593,2.264716863632202,0.9974062442779541,,,,,,,
4633668000.0,75.89,-1.100000023841858,12041169408.0,1785.4549768845216,94.0,-0.0038636750541627407,389120.0,696.8286361694336,5.429684479807406e-15,0.0,2.5951926708221436,-0.0259519275277853,0.06009729206562042,-0.025951925665140152,-1.862645149230957e-09,0.0,0.005380493588745594,0.3466914892196655,0.579973184943301,-0.040237732231616974,0.40748611092567444,-0.034857235848903656,0.5349394083023071,2.294093132019043,0.99753737449646,,,,,,,
4633668000.0,74.4,-0.8199999928474426,12041169408.0,1792.3828141521699,95.0,-0.006527199875563383,393216.0,699.1138622760773,4.65079363909382e-15,0.0,2.583801746368408,-0.02583802305161953,0.07386431843042374,-0.025838017463684082,-5.587935447692871e-09,0.0,-0.026906602084636688,0.3834587037563324,0.668017933145092,-0.08889605849981308,0.49343976378440857,-0.11580266058444977,0.6655203104019165,2.2852261066436768,0.9971399307250977,,,,,,,
,,,,,,,,,,,,,,,,,,,,,,,,,,0.0027766400016844273,0.08294553309679031,0.0711338222026825,0.0027766400016844273,0.08294553309679031,0.0711338222026825,
,,,,,,,,,,,,,,,,,,,,,,,,,,0.0021084374748170376,0.06323583424091339,0.06139659509062767,0.0021084374748170376,0.06323583424091339,0.06139659509062767,
,,,,,,,,,,,,,,,,,,,,,,,,,,0.0022395027335733175,0.0552702471613884,0.057091981172561646,0.0022395027335733175,0.0552702471613884,0.057091981172561646,
,,,,,,,,,,,,,,,,,,,,,,,,,,0.0020949530880898237,0.05075911059975624,0.05256124585866928,0.0020949530880898237,0.05075911059975624,0.05256124585866928,
,,,,,,,,,,,,,,,,,,,,,,,,,,0.0017926153959706426,0.045030977576971054,0.04689712077379227,0.0017926153959706426,0.045030977576971054,0.04689712077379227,
,,,,,,,,,,,,,,,,,,,,,,,,,,0.001523893210105598,0.04230058565735817,0.04332072287797928,0.001523893210105598,0.04230058565735817,0.04332072287797928,
,,,,,,,,,,,,,,,,,,,,,,,,,,,,,,,,-1.13
4634180000.0,77.39,-0.75,11990521856.0,16.99888008486966,96.0,-0.004359714221209288,397312.0,940.070912361145,5.6604027021123215e-15,0.0,2.603262186050415,-0.026032615453004837,0.052978117018938065,-0.026032621040940285,5.587935447692871e-09,0.0,0.05460289120674133,0.3209359645843506,0.7776008330185815,-0.26678672432899475,0.6269245743751526,-0.21218383312225342,0.6805371642112732,240.95705008506775,0.9974362850189209,,,,,,,
4634180000.0,75.86,-1.0299999713897705,12041169408.0,1794.7436159971585,97.0,-0.00993216410279274,401408.0,942.3531324863434,5.955305693028379e-15,0.0,2.5900890827178955,-0.02590089477598667,0.0904824435710907,-0.025900891050696373,-3.725290298461914e-09,0.0,0.014518998563289642,0.42520374059677124,0.6811051702137101,-0.2857654094696045,0.6569587588310242,-0.27124643325805664,0.7529624104499817,2.2822201251983643,0.9974021911621094,,,,,,,
4634180000.0,75.51,-1.2999999523162842,12041169408.0,1743.916161454977,98.0,-0.005213829223066568,405504.0,944.7018692493439,5.405398351143731e-15,0.0,2.5945637226104736,-0.02594563364982605,0.05443631857633591,-0.02594563737511635,3.725290298461914e-09,0.0,0.004771010018885136,0.3299643397331238,0.731097711277575,-0.24303625524044037,0.5445799827575684,-0.2382652461528778,0.6363114714622498,2.3487367630004883,0.9969639778137207,,,,,,,
4634180000.0,77.73,-0.7599999904632568,12041169408.0,1776.0796417543584,99.0,-0.0061929840594530106,409600.0,947.0080721378326,5.811323644522304e-15,0.0,2.591003894805908,-0.025910038501024246,0.06681257486343384,-0.025910038501024246,0.0,0.0,0.043473366647958755,0.36299777030944824,0.7651814793936786,-0.3256400525569916,0.6722251772880554,-0.2821666896343231,0.7490965127944946,2.3062028884887695,0.9971792697906494,,,,,,,
4634180000.0,77.14,-0.9200000166893005,12041169408.0,1791.6674506401246,100.0,-0.008144631050527096,413696.0,949.2942106723785,6.3889865620225805e-15,0.0,2.569399833679199,-0.02569400519132614,0.0769568532705307,-0.025693997740745544,-7.450580596923828e-09,0.0,0.0159950889647007,0.3920400142669678,0.6713157649100019,-0.2413548082113266,0.5475532412528992,-0.225359708070755,0.6838186979293823,2.2861385345458984,0.9971861839294434,,,,,,,
4634180000.0,77.32,-1.059999942779541,12041169408.0,1779.4210751348144,101.0,-0.004141578916460276,417792.0,951.5960829257965,6.00908212078366e-15,0.0,2.553441047668457,-0.025534415617585182,0.05158086121082306,-0.025534410029649734,-5.587935447692871e-09,0.0,0.002594713121652603,0.32121673226356506,0.6368052789324473,-0.13447776436805725,0.44897305965423584,-0.13188305497169495,0.5330014228820801,2.3018722534179688,0.9972865581512451,,,,,,,
4634180000.0,77.02,-0.6100000143051147,12041169408.0,1814.6579194841347,102.0,-0.0036592280957847834,421888.0,953.8532576560974,5.7592819402429996e-15,0.0,2.550968647003174,-0.02550968900322914,0.04127007722854614,-0.025509685277938843,-2.7939677238464355e-09,0.0,0.047768622636795044,0.28333356976509094,0.8121835296677946,-0.18490761518478394,0.5640218257904053,-0.1371389925479889,0.6537793278694153,2.2571747303009033,0.9973409175872803,,,,,,,
4634180000.0,76.81,-0.46000000834465027,12041169408.0,1765.5390648018404,103.0,-0.0036662311758846045,425984.0,956.1732289791107,6.3074545586516706e-15,0.0,2.503347396850586,-0.02503347583115101,0.03811603784561157,-0.02503347396850586,-1.862645149230957e-09,0.0,0.014968903735280037,0.27572914958000183,0.8184928202265943,-0.1867143213748932,0.5480682849884033,-0.1717454046010971,0.6471959352493286,2.3199713230133057,0.9971764087677002,,,,,,,
4634180000.0,74.93,-0.6399999856948853,12041169408.0,1798.8875695084769,104.0,-0.004163168370723724,430080.0,958.4501917362213,6.25888230132432e-15,0.0,2.5338492393493652,-0.025338497012853622,0.046892113983631134,-0.025338491424918175,-5.122274160385132e-09,0.0,-0.002628766931593418,0.30626821517944336,0.7684724360132414,-0.15292194485664368,0.5072150826454163,-0.15555071830749512,0.6365031003952026,2.2769627571105957,0.9972212314605713,,,,,,,
4634180000.0,72.42,-0.7200000286102295,12041169408.0,1746.9908092127114,105.0,-0.0030672268476337194,434176.0,960.7947947978973,7.134917656692608e-15,0.0,2.4793972969055176,-0.024793973192572594,0.04347468912601471,-0.024793973192572594,0.0,0.0,0.011536788195371628,0.29468199610710144,0.8163328559187688,-0.20626114308834076,0.6147229671478271,-0.19472435116767883,0.6876031756401062,2.3446030616760254,0.9972424507141113,,,,,,,
4634180000.0,73.7,-0.4099999964237213,12041169408.0,1795.781051438857,106.0,-0.002826687414199114,438272.0,963.0756964683533,6.572867250476122e-15,0.0,2.4848294258117676,-0.024848278611898422,0.042260922491550446,-0.024848293513059616,1.4901161193847656e-08,0.0,0.040102116763591766,0.2879824936389923,0.7022347921667759,-0.12084074318408966,0.48015347123146057,-0.0807386189699173,0.5277510285377502,2.2809016704559326,0.9972965717315674,,,,,,,
4634180000.0,74.52,-0.6000000238418579,12041169408.0,1779.3814503975,107.0,-0.0051691471599042416,442368.0,965.3776199817657,7.042977312465837e-15,0.0,2.5723700523376465,-0.025723695755004883,0.08113859593868256,-0.02572369948029518,3.725290298461914e-09,0.0,0.017400814220309258,0.40250954031944275,0.6843063237791368,-0.2066447138786316,0.6482481956481934,-0.18924391269683838,0.716379702091217,2.3019235134124756,0.9970746040344238,,,,,,,
4634180000.0,76.67,-0.8700000047683716,12041169408.0,1771.5528298503357,108.0,-0.007265528663992882,446464.0,967.6897158622742,6.970118926474811e-15,0.0,2.504328727722168,-0.025043301284313202,0.0749412477016449,-0.025043286383152008,-1.3969838619232178e-08,0.0,-0.0014107120223343372,0.3871912956237793,0.7318961020618037,-0.2280193567276001,0.622690737247467,-0.22943007946014404,0.7477803230285645,2.312095880508423,0.9969618320465088,,,,,,,
4634180000.0,75.38,-1.090000033378601,12041169408.0,1792.8165721795745,109.0,-0.005304574500769377,450560.0,969.9743890762329,6.494804694057166e-15,0.0,2.5271639823913574,-0.02527162805199623,0.0459427572786808,-0.025271639227867126,1.1175870895385742e-08,0.0,-0.0230637826025486,0.3022844195365906,0.7696838049614839,-0.08923349529504776,0.5190304517745972,-0.11229728162288666,0.6298738121986389,2.2846732139587402,0.9973795413970947,,,,,,,
4634180000.0,72.11,-0.6499999761581421,12041169408.0,1788.6174541866305,110.0,-0.005068117752671242,454656.0,972.2644259929657,7.717784744620815e-15,0.0,2.519024133682251,-0.025190241634845734,0.04494256526231766,-0.025190241634845734,0.0,0.0,-0.013737686909735203,0.29953014850616455,0.7998508375468438,-0.10672105848789215,0.5709656476974487,-0.12045874446630478,0.6695201396942139,2.290036916732788,0.9971888065338135,,,,,,,
4634180000.0,76.18,-0.550000011920929,12041169408.0,1736.1801768552484,111.0,-0.0021049445495009422,458752.0,974.6236281394958,6.850423006632411e-15,0.0,2.520493745803833,-0.025204937905073166,0.04810123145580292,-0.025204936042428017,-9.313225746154785e-10,0.0,-0.011768273077905178,0.30997973680496216,0.6859392863693577,-0.034765228629112244,0.4606465697288513,-0.04653351008892059,0.5531290769577026,2.3592021465301514,0.997251033782959,,,,,,,
4634180000.0,76.67,-0.6899999976158142,12041169408.0,1795.0037064287742,112.0,-0.007190749980509281,462848.0,976.905517578125,7.13318293321663e-15,0.0,2.532546043395996,-0.025325460359454155,0.06999745965003967,-0.025325460359454155,0.0,0.0,-0.03555835783481598,0.3725109100341797,0.6970992069925998,-0.16404874622821808,0.5370351076126099,-0.19960710406303406,0.6768444180488586,2.2818894386291504,0.9976897239685059,,,,,,,
4634180000.0,75.12,-0.9900000095367432,12041169408.0,1738.6405775488179,113.0,-0.005458302795886993,466944.0,979.261381149292,6.8833827526759706e-15,0.0,2.5792431831359863,-0.025792445987462997,0.07202794402837753,-0.025792431086301804,-1.4901161193847656e-08,0.0,-0.03346167132258415,0.378115177154541,0.5875472957461924,-0.04844360426068306,0.4620891809463501,-0.08190527558326721,0.5887582898139954,2.355863571166992,0.9974689483642578,,,,,,,
4634180000.0,81.38,-0.5299999713897705,12041169408.0,1792.4486405822017,114.0,-0.0008698863675817847,471040.0,981.5465233325958,7.440228988464526e-15,0.0,2.5396780967712402,-0.025396786630153656,0.04590369015932083,-0.02539678104221821,-5.587935447692871e-09,0.0,0.056978385895490646,0.2976280748844147,0.6791092236490333,-0.0651172623038292,0.49073880910873413,-0.008138876408338547,0.5254063010215759,2.285142183303833,0.9974453449249268,,,,,,,
4634180000.0,79.06,-0.8700000047683716,12041169408.0,1784.5024632138325,115.0,-0.008828017860651016,475136.0,983.8418409824371,7.901665433074356e-15,0.0,2.556192636489868,-0.025561928749084473,0.08604420721530914,-0.025561925023794174,-3.725290298461914e-09,0.0,-0.03129848092794418,0.4137035310268402,0.6517872845231684,-0.20358756184577942,0.5484060645103455,-0.2348860204219818,0.7010788917541504,2.2953176498413086,0.9976439476013184,,,,,,,
4634180000.0,77.82,-0.9100000262260437,12041169408.0,1771.620240925688,116.0,-0.0016187711153179407,479232.0,986.1538488864899,6.593683932187844e-15,0.0,2.627004623413086,-0.026270046830177307,0.07144583761692047,-0.026270044967532158,-1.862645149230957e-09,0.0,-0.004829952027648687,0.37802544236183167,0.6586441829883617,-0.05971653759479523,0.49678823351860046,-0.06454648077487946,0.6470195055007935,2.3120079040527344,0.9974539279937744,,,,,,,
4634180000.0,80.05,-0.4000000059604645,12041169408.0,1749.7419349319184,117.0,-0.0036149073857814074,483328.0,988.4947655200958,8.326672684688674e-15,0.0,2.5999722480773926,-0.02599972113966942,0.07650895416736603,-0.02599972113966942,0.0,0.0,0.013143111951649189,0.3910019099712372,0.6908682139660112,-0.1930481493473053,0.6071311235427856,-0.1799050271511078,0.7032456398010254,2.340916633605957,0.9972600936889648,,,,,,,
4634180000.0,77.89,-0.23999999463558197,12041169408.0,1752.5435725638133,118.0,0.0021228985860943794,487424.0,990.8319399356842,8.036973864200547e-15,0.0,2.5877761840820312,-0.025877762585878372,0.059002943336963654,-0.025877760723233223,-1.862645149230957e-09,0.0,0.0880073830485344,0.3320956230163574,0.632583581147739,-0.14165566861629486,0.5390107035636902,-0.05364827811717987,0.5478779673576355,2.337174415588379,0.9971306324005127,,,,,,,
4634180000.0,76.14,0.18000000715255737,12041169408.0,1731.4377658276082,119.0,0.00037532212445512414,491520.0,993.1976039409637,8.564329800897497e-15,0.0,2.615720272064209,-0.026157209649682045,0.06786422431468964,-0.026157202199101448,-7.450580596923828e-09,0.0,0.049418143928050995,0.3651285469532013,0.5654321810848488,-0.12976901233196259,0.5394055843353271,-0.080350860953331,0.5538816452026367,2.365664005279541,0.9970104694366455,,,,,,,
4634180000.0,76.71,0.0,12041169408.0,1764.0872821173891,120.0,-0.002882176311686635,495616.0,995.5194845199585,9.377915111130619e-15,0.0,2.603606700897217,-0.02603607438504696,0.08060305565595627,-0.026036066934466362,-7.450580596923828e-09,0.0,-0.0055823298171162605,0.40151500701904297,0.6021517332978858,-0.16584399342536926,0.5683278441429138,-0.17142632603645325,0.6365654468536377,2.321880578994751,0.9975168704986572,,,,,,,
4634180000.0,80.98,-0.18000000715255737,12041169408.0,1740.6634109866284,121.0,0.0007533641764894128,499712.0,997.8726103305817,9.209646933960869e-15,0.0,2.5760202407836914,-0.025760211050510406,0.05662974715232849,-0.02576020173728466,-9.313225746154785e-09,0.0,0.021473199129104614,0.33589571714401245,0.534361488870522,0.036649059504270554,0.40085628628730774,0.05812225863337517,0.49224352836608887,2.353125810623169,0.9971933364868164,,,,,,,
4634180000.0,78.39,0.18000000715255737,12041169408.0,1756.9222480308363,122.0,0.0013832072727382183,503808.0,1000.203959941864,1.029037965949442e-14,0.0,2.578956127166748,-0.02578955702483654,0.056186240166425705,-0.02578956075012684,3.259629011154175e-09,0.0,0.018918508663773537,0.33472663164138794,0.5737259607648475,0.031122073531150818,0.4214317202568054,0.050040580332279205,0.5126793384552002,2.3313496112823486,0.9971222877502441,,,,,,,
4634180000.0,77.27,0.15000000596046448,12041169408.0,1736.679494470787,123.0,0.0011331001296639442,507904.0,1002.5624837875366,1.1530706944817837e-14,0.0,2.564624309539795,-0.025646258145570755,0.06071436032652855,-0.02564624324440956,-1.3969838619232178e-08,0.0,0.01523794885724783,0.34817540645599365,0.5148166383224021,0.10505419969558716,0.35967203974723816,0.12029215693473816,0.49985629320144653,2.3585238456726074,0.9973292350769043,,,,,,,
4634180000.0,79.97,-0.03999999910593033,12041169408.0,1812.1423941283608,124.0,0.00012609653640538454,512000.0,1004.8227918148041,1.1232334506949826e-14,0.0,2.568244457244873,-0.025682447478175163,0.06295725703239441,-0.025682443752884865,-3.725290298461914e-09,0.0,-0.020668193697929382,0.35428518056869507,0.41569222125038574,0.19659575819969177,0.33979177474975586,0.1759275645017624,0.46348121762275696,2.260308027267456,0.9974308013916016,,,,,,,
4634180000.0,79.59,-0.07000000029802322,12041169408.0,1815.930395428725,125.0,-0.0030308535788208246,516096.0,1007.0783848762512,1.2248882463872235e-14,0.0,2.545126438140869,-0.025451257824897766,0.09335605800151825,-0.025451263412833214,5.587935447692871e-09,0.0,-0.09501615166664124,0.4215773046016693,0.26250667347022105,0.22609451413154602,0.2800367772579193,0.13107836246490479,0.49090585112571716,2.2555930614471436,0.9973175525665283,,,,,,,
4634180000.0,78.36,-0.009999999776482582,12041169408.0,1800.254215435275,126.0,0.0021506361663341522,520192.0,1009.3536190986633,1.2304393615103493e-14,0.0,2.4670324325561523,-0.024670332670211792,0.04770306497812271,-0.024670323356986046,-9.778887033462524e-09,0.0,0.0003204471431672573,0.3089163899421692,0.48866019575799047,0.1448279321193695,0.30674806237220764,0.145148366689682,0.43200236558914185,2.2752342224121094,0.9973082542419434,,,,,,,
4634180000.0,73.45,0.3100000023841858,12041169408.0,1714.753065593597,127.0,0.00392778730019927,524288.0,1011.7423012256622,1.2923689896027213e-14,0.0,2.4877703189849854,-0.024877699092030525,0.049785591661930084,-0.024877702817320824,3.725290298461914e-09,0.0,0.042240340262651443,0.31274721026420593,0.30956236433440987,0.12217241525650024,0.19618336856365204,0.1644127517938614,0.37638407945632935,2.3886821269989014,0.9973266124725342,,,,,,,
,,,,,,,,,,,,,,,,,,,,,,,,,,0.018493665382266045,0.09288763999938965,0.08232349902391434,0.018493665382266045,0.09288763999938965,0.08232349902391434,
,,,,,,,,,,,,,,,,,,,,,,,,,,0.007419689558446407,0.06889079511165619,0.067581906914711,0.007419689558446407,0.06889079511165619,0.067581906914711,
,,,,,,,,,,,,,,,,,,,,,,,,,,0.008064324036240578,0.06310725212097168,0.06351253390312195,0.008064324036240578,0.06310725212097168,0.06351253390312195,
,,,,,,,,,,,,,,,,,,,,,,,,,,0.005429410375654697,0.05527494102716446,0.055335067212581635,0.005429410375654697,0.05527494102716446,0.055335067212581635,
,,,,,,,,,,,,,,,,,,,,,,,,,,0.005460474640130997,0.05080980062484741,0.05097546428442001,0.005460474640130997,0.05080980062484741,0.05097546428442001,
,,,,,,,,,,,,,,,,,,,,,,,,,,0.004977306351065636,0.04656979814171791,0.046704377979040146,0.004977306351065636,0.04656979814171791,0.046704377979040146,
,,,,,,,,,,,,,,,,,,,,,,,,,,,,,,,,0.03
4634184000.0,76.33,0.3799999952316284,11990521856.0,16.993768941859795,128.0,0.0013953192392364144,528384.0,1252.7718229293823,1.0182826803983858e-14,0.0,2.540884017944336,-0.02540884166955948,0.056893765926361084,-0.02540883980691433,-9.313225746154785e-10,0.0,0.0065554105676710606,0.3373015522956848,0.5641611921851385,0.08475230634212494,0.3790853023529053,0.09130772203207016,0.510922908782959,241.0295217037201,0.9975771903991699,,,,,,,
4634184000.0,82.78,0.3499999940395355,12041169408.0,1814.368916814565,129.0,0.0027954860124737024,532480.0,1255.0293571949005,9.596490269103697e-15,0.0,2.5573387145996094,-0.025573385879397392,0.06249172240495682,-0.025573385879397392,0.0,0.0,0.03300410509109497,0.352029025554657,0.5354765520011768,0.048940304666757584,0.4048965573310852,0.08194440603256226,0.5165051221847534,2.2575342655181885,0.9972591400146484,,,,,,,
4634184000.0,81.89,0.28999999165534973,12041169408.0,1741.3627984703867,130.0,-0.0003817527031060308,536576.0,1257.3815379142761,1.0047518372857667e-14,0.0,2.505031108856201,-0.025050317868590355,0.06492611020803452,-0.025050310418009758,-7.450580596923828e-09,0.0,0.0007655881345272064,0.36039331555366516,0.46939056212544306,0.04708503931760788,0.34835758805274963,0.047850631177425385,0.4947539269924164,2.3521807193756104,0.9974822998046875,,,,,,,
4634184000.0,82.33,0.15000000596046448,12041169408.0,1793.9192132925623,131.0,0.0010187627049162984,540672.0,1259.664806842804,9.929557176491244e-15,0.0,2.5194153785705566,-0.02519415132701397,0.08443763852119446,-0.02519415318965912,1.862645149230957e-09,0.0,0.037316471338272095,0.40929654240608215,0.3882867612061447,0.024086151272058487,0.38836267590522766,0.06140262261033058,0.5233161449432373,2.283268928527832,0.9974384307861328,,,,,,,
4634184000.0,86.92,-0.05999999865889549,12041169408.0,1755.7370200684927,132.0,-0.00012749547022394836,544768.0,1261.997730255127,9.285974766903848e-15,0.0,2.549023151397705,-0.025490235537290573,0.07601752877235413,-0.025490231812000275,-3.725290298461914e-09,0.0,-0.020543396472930908,0.3894227147102356,0.393056288005012,0.07181627303361893,0.35107913613319397,0.05127288028597832,0.49985846877098083,2.332923412322998,0.9972388744354248,,,,,,,
4634184000.0,85.87,0.019999999552965164,12041169408.0,1807.6423643889639,133.0,-0.0008939685067161918,548864.0,1264.2636651992798,8.815864704914134e-15,0.0,2.537713050842285,-0.025377128273248672,0.05985623225569725,-0.02537713013589382,9.313225746154785e-10,0.0,0.0017870087176561356,0.3460325300693512,0.39301663869531434,0.07472777366638184,0.37632980942726135,0.07651478052139282,0.44414883852005005,2.265934944152832,0.9969792366027832,,,,,,,
4634184000.0,79.67,0.20000000298023224,12041169408.0,1804.9213144970115,134.0,0.0033254283480346203,552960.0,1266.533016204834,9.046582927219049e-15,0.0,2.568244218826294,-0.025682441890239716,0.05612970143556595,-0.025682441890239716,0.0,0.0,0.01497996412217617,0.3347571790218353,0.42965162781221333,0.09444144368171692,0.31497639417648315,0.10942141711711884,0.4432612657546997,2.269351005554199,0.9972660541534424,,,,,,,
4634184000.0,81.36,0.36000001430511475,12041169408.0,1817.9038207274994,135.0,0.0,557056.0,1268.7861607074738,8.31799906730879e-15,0.0,2.553925037384033,-0.025539249181747437,0.06077849492430687,-0.025539249181747437,9.313225746154785e-10,0.0,0.005697043612599373,0.34864625334739685,0.45202506027476774,0.11330844461917877,0.3492697775363922,0.119005486369133,0.4709823727607727,2.2531445026397705,0.9974229335784912,,,,,,,
4634184000.0,83.52,0.12999999523162842,12041169408.0,1740.7755856695587,136.0,0.001539050368592143,561152.0,1271.1391348838806,8.7360674250192e-15,0.0,2.547975540161133,-0.025479760020971298,0.05038430541753769,-0.02547975443303585,-4.6566128730773926e-09,0.0,-0.018654104322195053,0.3169308304786682,0.45066862245831585,0.14542871713638306,0.3212498724460602,0.1267746090888977,0.42760947346687317,2.3529741764068604,0.9975545406341553,,,,,,,
4634184000.0,79.25,0.38999998569488525,12041169408.0,1789.9871838859083,137.0,0.00462505454197526,565248.0,1273.427419424057,8.670147932932082e-15,0.0,2.5730905532836914,-0.025730904191732407,0.037410542368888855,-0.025730904191732407,0.0,0.0,0.014013806357979774,0.2732085585594177,0.4423379665660534,0.1338033527135849,0.3119882345199585,0.14781714975833893,0.36585479974746704,2.2882845401763916,0.9974262714385986,,,,,,,
4634184000.0,77.66,0.47999998927116394,12041169408.0,1809.961753889472,138.0,0.002444616286084056,569344.0,1275.690450668335,8.7360674250192e-15,0.0,2.5633504390716553,-0.02563350275158882,0.05277423933148384,-0.02563350461423397,1.862645149230957e-09,0.0,0.022794151678681374,0.3241211771965027,0.46742033473286004,0.13853049278259277,0.30826544761657715,0.1613246500492096,0.4441351294517517,2.263031244277954,0.997197151184082,,,,,,,
4634184000.0,79.49,0.41999998688697815,12041169408.0,1712.928298548726,139.0,0.001416986109688878,573440.0,1278.0816774368286,9.164544123585472e-15,0.0,2.526718854904175,-0.02526717819273472,0.056856535375118256,-0.025267187505960464,9.313225746154785e-09,0.0,-0.016580743715167046,0.3368469178676605,0.52265014091936,0.12365123629570007,0.32642507553100586,0.10707049071788788,0.4875444173812866,2.3912267684936523,0.9973764419555664,,,,,,,
4634184000.0,80.04,0.27000001072883606,12041169408.0,1773.9824985690832,140.0,0.002065311884507537,577536.0,1280.3906066417694,9.747411211513679e-15,0.0,2.521784782409668,-0.025217847898602486,0.03401752933859825,-0.025217847898602486,0.0,0.0,0.004296666476875544,0.260831743478775,0.48016577428008855,0.1486484408378601,0.28044798970222473,0.15294510126113892,0.3617662191390991,2.308929204940796,0.9977335929870605,,,,,,,
4634184000.0,77.73,0.38999998569488525,12041169408.0,1817.9857711371292,141.0,0.003361409530043602,581632.0,1282.6436495780945,9.069134332406747e-15,0.0,2.5195200443267822,-0.025195203721523285,0.03942239284515381,-0.025195199996232986,-3.725290298461914e-09,0.0,-0.01769985444843769,0.28026893734931946,0.39222722174031,0.1739574670791626,0.25815653800964355,0.15625759959220886,0.3595045208930969,2.2530429363250732,0.9975237846374512,,,,,,,
4634184000.0,75.09,0.4000000059604645,12041169408.0,1778.728173167029,142.0,0.0015535805141553283,585728.0,1284.9464185237885,8.862702238765507e-15,0.0,2.5568490028381348,-0.02556849643588066,0.03983715921640396,-0.025568488985300064,-7.450580596923828e-09,0.0,-0.03094753809273243,0.2805989980697632,0.5122510107408527,0.18268950283527374,0.27559101581573486,0.15174195170402527,0.4017796516418457,2.3027689456939697,0.9972283840179443,,,,,,,
4634184000.0,80.5,0.25999999046325684,12041169408.0,1757.364357290238,143.0,-0.00012959554442204535,589824.0,1287.2771816253662,1.0503750647039567e-14,0.0,2.5251760482788086,-0.025251759216189384,0.0743291825056076,-0.025251759216189384,0.0,0.0,-0.03432096540927887,0.384078711271286,0.5012052621776647,0.1984339952468872,0.29955461621284485,0.16411301493644714,0.5438251495361328,2.330763101577759,0.9974429607391357,,,,,,,
4634184000.0,86.94,0.03999999910593033,12041169408.0,1752.7314899994074,144.0,-0.00025926140369847417,593920.0,1289.614105463028,1.1393663790215669e-14,0.0,2.51308012008667,-0.025130797177553177,0.0817800909280777,-0.025130800902843475,3.725290298461914e-09,0.0,-0.03582872077822685,0.40288475155830383,0.49327784752289083,0.2542286515235901,0.3436582088470459,0.21839994192123413,0.5659732222557068,2.336923837661743,0.9969351291656494,,,,,,,
4634184000.0,87.17,0.28999999165534973,12041169408.0,1770.128714890162,145.0,0.005188969895243645,598016.0,1291.9280614852905,1.074140776324839e-14,0.0,2.518176555633545,-0.025181762874126434,0.03778311610221863,-0.025181764736771584,1.862645149230957e-09,0.0,0.032429371029138565,0.2730068862438202,0.6621193272837342,0.16183722019195557,0.3534591495990753,0.19426658749580383,0.469668984413147,2.3139560222625732,0.997061014175415,,,,,,,
4634184000.0,82.42,0.5799999833106995,12041169408.0,1808.3277161068072,146.0,0.004415986128151417,602112.0,1294.1931376457214,1.008915173628111e-14,0.0,2.5175890922546387,-0.025175878778100014,0.04053531587123871,-0.02517588995397091,1.1175870895385742e-08,0.0,0.03425301983952522,0.2826957404613495,0.550747306172632,0.15063267946243286,0.31684747338294983,0.18488569557666779,0.42176827788352966,2.265076160430908,0.9975781440734863,,,,,,,
4634184000.0,82.23,0.800000011920929,12041169408.0,1776.9038986581998,147.0,0.005589266773313284,606208.0,1296.4982707500458,1.1350295703316249e-14,0.0,2.5095458030700684,-0.02509545348584652,0.05353887006640434,-0.025095457211136818,3.725290298461914e-09,0.0,0.018163016065955162,0.32676276564598083,0.6152216679935469,0.210406094789505,0.3695506155490875,0.22856910526752472,0.5267775654792786,2.305133104324341,0.9974312782287598,,,,,,,
4634184000.0,82.76,0.7200000286102295,12041169408.0,1767.6000946156823,148.0,0.0022136899642646313,610304.0,1298.8155369758606,1.186030440525343e-14,0.0,2.4939887523651123,-0.024939890950918198,0.038332246243953705,-0.0249398872256279,-3.725290298461914e-09,0.0,0.005282691679894924,0.27686694264411926,0.5984091030280636,0.1658630669116974,0.3523636758327484,0.17114576697349548,0.4368971288204193,2.3172662258148193,0.9974522590637207,,,,,,,
4634184000.0,79.41,0.4399999976158142,12041169408.0,1781.0883864066466,149.0,0.00508479867130518,614400.0,1301.1152544021606,1.1074474670635936e-14,0.0,2.5042426586151123,-0.025042422115802765,0.041566647589206696,-0.025042425841093063,3.725290298461914e-09,0.0,0.0031852638348937035,0.2883460521697998,0.6025896330645324,0.23311376571655273,0.3644901216030121,0.2362990379333496,0.4573981761932373,2.299717426300049,0.9974339008331299,,,,,,,
4634184000.0,82.91,0.8299999833106995,12041169408.0,1726.4109405845825,150.0,0.00678597204387188,618496.0,1303.487806558609,1.1541115285673698e-14,0.0,2.498321533203125,-0.02498321793973446,0.039275798946619034,-0.02498321421444416,-3.725290298461914e-09,0.0,0.042413804680109024,0.2770765423774719,0.6110278311246545,0.24977749586105347,0.38042473793029785,0.2921912968158722,0.44426336884498596,2.3725521564483643,0.9971110820770264,,,,,,,
4634184000.0,85.88,0.8999999761581421,12041169408.0,1816.1987752722337,151.0,0.004313980229198933,622592.0,1305.7430663108826,1.1957448919908131e-14,0.0,2.490267753601074,-0.024902677163481712,0.05015060305595398,-0.024902677163481712,0.0,0.0,-0.016456659883260727,0.3163144290447235,0.5194606003745346,0.2739913761615753,0.38523173332214355,0.2575347125530243,0.45630425214767456,2.2552597522735596,0.9972951412200928,,,,,,,
4634184000.0,83.28,0.6200000047683716,12041169408.0,1733.1971095943784,152.0,0.0028786961920559406,626688.0,1308.1063289642334,1.1900203045200897e-14,0.0,2.4743592739105225,-0.024743584915995598,0.05034712702035904,-0.024743592366576195,7.450580596923828e-09,0.0,-0.014673260971903801,0.31702283024787903,0.6169392317288644,0.3275148570537567,0.42960530519485474,0.31284159421920776,0.5122202038764954,2.36326265335083,0.9972324371337891,,,,,,,
4634184000.0,86.98,0.7400000095367432,12041169408.0,1772.8745836473468,153.0,0.005895497743040323,630784.0,1310.416701078415,1.2203779653496838e-14,0.0,2.48716402053833,-0.024871645495295525,0.05100210756063461,-0.024871639907360077,-5.587935447692871e-09,0.0,-0.007659511640667915,0.3193281292915344,0.5981745142854955,0.33106285333633423,0.40745243430137634,0.32340332865715027,0.5037539005279541,2.3103721141815186,0.997246265411377,,,,,,,
4634184000.0,86.92,0.7300000190734863,12041169408.0,1814.2112307077548,154.0,0.0020987067837268114,634880.0,1312.6744315624237,1.2481335409653127e-14,0.0,2.4551444053649902,-0.02455144375562668,0.07459595799446106,-0.02455144375562668,4.656612873077393e-10,0.0,-0.0521550253033638,0.3827630281448364,0.5512429808045274,0.3107883334159851,0.44585728645324707,0.2586333155632019,0.5713790655136108,2.257730484008789,0.9973499774932861,,,,,,,
4634184000.0,82.66,0.6399999856948853,12041169408.0,1778.9055385682705,155.0,0.006173730827867985,638976.0,1314.976970911026,1.3640130691605634e-14,0.0,2.462092161178589,-0.024620920419692993,0.047138459980487823,-0.024620920419692993,0.0,0.0,0.015215124003589153,0.30670568346977234,0.5921246091190551,0.3682001829147339,0.4439118206501007,0.3834152817726135,0.48023974895477295,2.302539348602295,0.9973480701446533,,,,,,,
4634184000.0,80.91,0.7900000214576721,12041169408.0,1736.5783792121697,156.0,0.0026302507612854242,643072.0,1317.3356320858002,1.3815337762679292e-14,0.0,2.450889825820923,-0.024508893489837646,0.07000496983528137,-0.024508897215127945,4.6566128730773926e-09,0.0,-0.05320547893643379,0.37042221426963806,0.48126258342469885,0.2916127145290375,0.3562037944793701,0.2384072095155716,0.5143079161643982,2.35866117477417,0.9971997737884521,,,,,,,
4634184000.0,81.47,0.44999998807907104,12041169408.0,1784.4307320366024,157.0,0.0032915836200118065,647168.0,1319.6310420036316,1.3780643293159756e-14,0.0,2.429274559020996,-0.02429274283349514,0.06324698776006699,-0.02429274469614029,1.862645149230957e-09,0.0,-0.02634146623313427,0.3547264039516449,0.4501923858163298,0.2116497904062271,0.33202406764030457,0.1853083223104477,0.4783966541290283,2.295409917831421,0.9975123405456543,,,,,,,
4634184000.0,82.93,0.4099999964237213,12041169408.0,1757.6597599047132,158.0,0.003953332081437111,651264.0,1321.961413383484,1.4590759156440924e-14,0.0,2.4162168502807617,-0.02416216768324375,0.06071173772215843,-0.02416216768324375,0.0,0.0,-0.005204830318689346,0.34846240282058716,0.40904143015992256,0.21565291285514832,0.3122938275337219,0.21044808626174927,0.45329129695892334,2.330371379852295,0.9974098205566406,,,,,,,
4634184000.0,79.73,0.7599999904632568,12041169408.0,1820.8739439009692,159.0,0.00620243139564991,655360.0,1324.2108826637268,1.4896070488212843e-14,0.0,2.383370876312256,-0.023833712562918663,0.04039159417152405,-0.023833708837628365,-3.725290298461914e-09,0.0,0.027768410742282867,0.2828986346721649,0.5614366961768883,0.17054814100265503,0.28523409366607666,0.1983165442943573,0.42718377709388733,2.24946928024292,0.9972405433654785,,,,,,,
,,,,,,,,,,,,,,,,,,,,,,,,,,0.010216576978564262,0.06765758991241455,0.05550571158528328,0.010216576978564262,0.06765758991241455,0.05550571158528328,
,,,,,,,,,,,,,,,,,,,,,,,,,,0.006495239678770304,0.05230296030640602,0.04820192605257034,0.006495239678770304,0.05230296030640602,0.04820192605257034,
,,,,,,,,,,,,,,,,,,,,,,,,,,0.006040202919393778,0.04703902080655098,0.04410431161522865,0.006040202919393778,0.04703902080655098,0.04410431161522865,
,,,,,,,,,,,,,,,,,,,,,,,,,,0.005573518108576536,0.04338353872299194,0.04145297780632973,0.005573518108576536,0.04338353872299194,0.04145297780632973,
,,,,,,,,,,,,,,,,,,,,,,,,,,0.004323315806686878,0.03897833824157715,0.03745102509856224,0.004323315806686878,0.03897833824157715,0.03745102509856224,
,,,,,,,,,,,,,,,,,,,,,,,,,,0.00429834658280015,0.03546034172177315,0.034586675465106964,0.00429834658280015,0.03546034172177315,0.034586675465106964,
,,,,,,,,,,,,,,,,,,,,,,,,,,,,,,,,0.71
4634184000.0,82.76,0.8700000047683716,11990521856.0,16.981369070302936,160.0,0.005945182405412197,659456.0,1565.4164052009583,1.3109305307956731e-14,0.0,2.40818452835083,-0.024081822484731674,0.03616253659129143,-0.024081844836473465,2.2351741790771484e-08,0.0,0.02983543835580349,0.26730576157569885,0.7311394249080321,0.24478891491889954,0.4308583438396454,0.2746243476867676,0.5155190229415894,241.20552253723145,0.9972856044769287,,,,,,,
4634184000.0,84.76,0.75,12041169408.0,1788.635703460266,161.0,0.003966523800045252,663552.0,1567.7064187526703,1.439300068017957e-14,0.0,2.367504119873047,-0.023675033822655678,0.06837841868400574,-0.023675041273236275,7.450580596923828e-09,0.0,0.031322181224823,0.36852264404296875,0.578575632398876,0.19394230842590332,0.44062143564224243,0.22526448965072632,0.5676809549331665,2.290013551712036,0.9974403381347656,,,,,,,
4634184000.0,80.35,0.699999988079071,12041169408.0,1790.1546770022662,162.0,0.0058264704421162605,667648.0,1569.9944891929626,1.3579415369946446e-14,0.0,2.4115421772003174,-0.02411540597677231,0.024031786248087883,-0.024115420877933502,1.4901161193847656e-08,0.0,0.028583910316228867,0.21738921105861664,0.6784761220445502,0.20804238319396973,0.34225407242774963,0.2366262674331665,0.3833816945552826,2.2880704402923584,0.9971745014190674,,,,,,,
4634184000.0,81.39,0.9300000071525574,12041169408.0,1778.376125688052,163.0,0.006231572479009628,671744.0,1572.2977139949799,1.3015630240253984e-14,0.0,2.4121832847595215,-0.02412182092666626,0.03663703054189682,-0.024121832102537155,1.1175870895385742e-08,0.0,0.0019273352809250355,0.2707180082798004,0.7236800900795355,0.31179356575012207,0.41426122188568115,0.3137208819389343,0.5150045156478882,2.303224802017212,0.997107744216919,,,,,,,
4634184000.0,84.56,1.1699999570846558,12041169408.0,1761.1376076065321,164.0,0.010087575763463974,675840.0,1574.6234834194183,1.3111040031432708e-14,0.0,2.403770923614502,-0.024037709459662437,0.023973360657691956,-0.024037709459662437,0.0,0.0,0.04643705114722252,0.21401286125183105,0.7433161609324865,0.33942773938179016,0.3624419569969177,0.3858647644519806,0.42241623997688293,2.3257694244384766,0.9974360466003418,,,,,,,
4634184000.0,85.11,1.5399999618530273,12041169408.0,1776.6710746646017,165.0,0.009696719236671925,679936.0,1576.9289186000824,1.3038181645441682e-14,0.0,2.3892335891723633,-0.023892324417829514,0.04071205109357834,-0.02389233559370041,1.1641532182693481e-08,0.0,0.03273610770702362,0.28349968791007996,0.6200162955053048,0.33545950055122375,0.37510284781455994,0.3681955933570862,0.45990705490112305,2.3054351806640625,0.9975085258483887,,,,,,,
4634184000.0,86.73,1.3600000143051147,12041169408.0,1778.991747610717,166.0,0.006782379932701588,684032.0,1579.2313463687897,1.247960068617715e-14,0.0,2.3800365924835205,-0.023800356313586235,0.03904540091753006,-0.02380036562681198,9.313225746154785e-09,0.0,0.031660404056310654,0.27768194675445557,0.6704236995949846,0.3417362868785858,0.4010138213634491,0.3733966648578644,0.4836927354335785,2.3024277687072754,0.9972074031829834,,,,,,,
4634184000.0,87.12,1.1399999856948853,12041169408.0,1798.7220164937155,167.0,0.005857405252754688,688128.0,1581.5085186958313,1.2219392164780629e-14,0.0,2.375642776489258,-0.02375643141567707,0.04777274653315544,-0.023756427690386772,-3.725290298461914e-09,0.0,-0.02513274922966957,0.3081185221672058,0.6548306736066727,0.3586806356906891,0.4164400100708008,0.3335478901863098,0.5244470834732056,2.277172327041626,0.9971761703491211,,,,,,,
4634184000.0,79.72,1.059999942779541,12041169408.0,1784.5556629274852,168.0,0.00825590081512928,692224.0,1583.8037679195404,1.2583684094735759e-14,0.0,2.3891172409057617,-0.023891175165772438,0.07115745544433594,-0.02389117144048214,-3.725290298461914e-09,0.0,-0.025120653212070465,0.3764551281929016,0.6301241120366285,0.4599958658218384,0.4536314606666565,0.4348752200603485,0.618992269039154,2.2952492237091064,0.9973766803741455,,,,,,,
4634184000.0,80.17,1.0800000429153442,12041169408.0,1764.0503298275562,169.0,0.00826858077198267,696320.0,1586.1256971359253,1.2377252001094519e-14,0.0,2.3843612670898438,-0.023843612521886826,0.02984503284096718,-0.023843612521886826,-9.313225746154785e-10,0.0,-0.03769281879067421,0.24141986668109894,0.6960944793955561,0.4623921811580658,0.4383516311645508,0.4246993660926819,0.4379289746284485,2.3219292163848877,0.9973902702331543,,,,,,,
4634184000.0,87.06,0.949999988079071,12041169408.0,1720.5336523121525,170.0,0.002136430237442255,700416.0,1588.506353855133,1.1955714196432154e-14,0.0,2.4261598587036133,-0.024261601269245148,0.06409216672182083,-0.02426159754395485,-2.7939677238464355e-09,0.0,-0.10696472227573395,0.34171828627586365,0.5842817308340063,0.47435224056243896,0.42790308594703674,0.3673875331878662,0.5299912095069885,2.3806567192077637,0.9973142147064209,,,,,,,
4634184000.0,83.56,0.8500000238418579,12041169408.0,1749.8442325285687,171.0,0.0072181024588644505,704512.0,1590.8471336364746,1.1993878112903644e-14,0.0,2.406834125518799,-0.024068336933851242,0.042787887156009674,-0.02406834065914154,2.7939677238464355e-09,0.0,-0.018005669116973877,0.29201436042785645,0.7460713846882744,0.45520949363708496,0.4989982545375824,0.4372038245201111,0.5794932842254639,2.3407797813415527,0.9973325729370117,,,,,,,
4634184000.0,76.51,0.7799999713897705,12041169408.0,1790.7622423974633,172.0,0.0038808935787528753,708608.0,1593.1344277858734,1.2346026978526936e-14,0.0,2.4562292098999023,-0.024562284350395203,0.0530063696205616,-0.0245622918009758,7.916241884231567e-09,0.0,-0.0523347333073616,0.3214016854763031,0.6438489603140408,0.3918399214744568,0.3941628932952881,0.3395051956176758,0.5385562181472778,2.2872941493988037,0.9972620010375977,,,,,,,
4634184000.0,79.37,0.8399999737739563,12041169408.0,1770.0789251026304,173.0,0.008305755443871021,712704.0,1595.448448896408,1.2080614286702485e-14,0.0,2.4685797691345215,-0.024685803800821304,0.03358908370137215,-0.024685796350240707,-7.450580596923828e-09,0.0,0.02260798215866089,0.25823113322257996,0.6538764241695114,0.3764578104019165,0.3801535367965698,0.3990657925605774,0.4389277398586273,2.314021110534668,0.9971132278442383,,,,,,,
4634184000.0,84.7,1.1799999475479126,12041169408.0,1800.674617086457,174.0,0.007107209414243698,716800.0,1597.723151922226,1.2021633688519273e-14,0.0,2.4532036781311035,-0.024532033130526543,0.04497247189283371,-0.02453203685581684,3.725290298461914e-09,0.0,-0.008869261480867863,0.2998136579990387,0.6653579225878286,0.38737133145332336,0.4119323194026947,0.3785020709037781,0.518276035785675,2.274703025817871,0.997450590133667,,,,,,,
4634184000.0,84.67,1.2000000476837158,12041169408.0,1770.6816974432315,175.0,0.008588310331106186,720896.0,1600.0363852977753,1.338165689368509e-14,0.0,2.4151880741119385,-0.024151891469955444,0.03509600833058357,-0.02415188029408455,-1.1175870895385742e-08,0.0,0.02795499563217163,0.2634909749031067,0.7359585514621222,0.3247799873352051,0.4278057813644409,0.3527349829673767,0.5127783417701721,2.3132333755493164,0.9973225593566895,,,,,,,
4634184000.0,88.37,1.1100000143051147,12041169408.0,1755.6456941030806,176.0,0.004970096051692963,724992.0,1602.369430065155,1.3536047283047026e-14,0.0,2.3682172298431396,-0.02368216961622238,0.05439217761158943,-0.02368217147886753,2.3283064365386963e-09,0.0,-0.0035096569918096066,0.3298463225364685,0.5886680809063083,0.2806987762451172,0.38155046105384827,0.27718910574913025,0.514298677444458,2.3330447673797607,0.997058629989624,,,,,,,
4634184000.0,89.38,1.1299999952316284,12041169408.0,1758.4868038276347,177.0,0.009278442710638046,729088.0,1604.6987054347992,1.5253423524264065e-14,0.0,2.2982659339904785,-0.022982677444815636,0.030577868223190308,-0.022982658818364143,-1.909211277961731e-08,0.0,0.07009032368659973,0.23718519508838654,0.7081139875053051,0.23502744734287262,0.33217450976371765,0.30511778593063354,0.4390166401863098,2.329275369644165,0.9972653388977051,,,,,,,
4634184000.0,90.41,1.309999942779541,12041169408.0,1812.369695006873,178.0,0.007401757873594761,733184.0,1606.958729982376,1.7289988885060836e-14,0.0,2.231168746948242,-0.022311683744192123,0.042146556079387665,-0.022311687469482422,3.725290298461914e-09,0.0,0.05254804342985153,0.2855725884437561,0.6190689268619429,0.29768508672714233,0.31389477849006653,0.35023313760757446,0.4626934826374054,2.2600245475769043,0.9976508617401123,,,,,,,
4634184000.0,89.85,1.3300000429153442,12041169408.0,1751.9863152306286,179.0,0.008487066254019737,737280.0,1609.2966477870941,1.941849459008438e-14,0.0,2.167855978012085,-0.021678559482097626,0.03678342327475548,-0.021678559482097626,0.0,0.0,0.047446489334106445,0.267082542181015,0.716317558299512,0.276697039604187,0.37457165122032166,0.32414349913597107,0.5014519095420837,2.3379178047180176,0.9974653720855713,,,,,,,
4634184000.0,84.97,1.2400000095367432,12041169408.0,1786.218871702033,180.0,0.00970370601862669,741376.0,1611.5897598266602,2.096586793065569e-14,0.0,2.0799121856689453,-0.020799122750759125,0.05845316872000694,-0.020799120888113976,-1.862645149230957e-09,0.0,0.048186518251895905,0.3385445177555084,0.6935678133519226,0.33604586124420166,0.40493452548980713,0.38423237204551697,0.611573338508606,2.29311203956604,0.9983806610107422,,,,,,,
4634184000.0,97.41,1.4900000095367432,12041169408.0,1760.3226788257596,181.0,0.00660577230155468,745472.0,1613.9166059494019,2.285151234904248e-14,0.0,2.0700478553771973,-0.02070048078894615,0.050775930285453796,-0.020700478926301003,-2.7939677238464355e-09,0.0,0.011569409631192684,0.3185008466243744,0.6291048191334863,0.34609174728393555,0.38712647557258606,0.3576611876487732,0.5229798555374146,2.326846122741699,0.996830940246582,,,,,,,
4634184000.0,99.57,1.440000057220459,12041169408.0,1810.6095555172633,182.0,0.0074201482348144054,749568.0,1616.1788275241852,2.2173235469935548e-14,0.0,2.1158945560455322,-0.021158941090106964,0.05950170010328293,-0.021158944815397263,3.725290298461914e-09,0.0,0.019283507019281387,0.3444713354110718,0.636686760458651,0.39604049921035767,0.4444010555744171,0.41532397270202637,0.5714950561523438,2.262221574783325,0.9973950386047363,,,,,,,
4634184000.0,98.8,1.3899999856948853,12041169408.0,1790.4865850054048,183.0,0.009852597489953041,753664.0,1618.4664738178253,2.8243032912378396e-14,0.0,1.9844753742218018,-0.01984475366771221,0.0492568165063858,-0.01984475366771221,0.0,0.0,0.017601652070879936,0.313413143157959,0.6968566733649568,0.5140602588653564,0.4659869074821472,0.531661868095398,0.5692370533943176,2.2876462936401367,0.9973065853118896,,,,,,,
4634184000.0,95.11,1.6799999475479126,12041169408.0,1769.8544498940398,184.0,0.009998716413974762,757760.0,1620.7807884216309,3.0428784492109173e-14,0.0,1.9226778745651245,-0.019226787611842155,0.03491095453500748,-0.01922677829861641,-9.313225746154785e-09,0.0,0.029627524316310883,0.2626041769981384,0.77763424943238,0.5154407620429993,0.5285345911979675,0.5450682640075684,0.5568878054618835,2.314314603805542,0.9977350234985352,,,,,,,
4634184000.0,91.73,1.5199999809265137,12041169408.0,1738.5605220497805,185.0,0.007026455365121365,761856.0,1623.1367604732513,2.950070743246158e-14,0.0,1.8580172061920166,-0.018580161035060883,0.09048125147819519,-0.018580172210931778,1.1175870895385742e-08,0.0,-0.06585636734962463,0.4203196167945862,0.7046334959178648,0.7555340528488159,0.6312768459320068,0.6896777153015137,0.7733908295631409,2.3559720516204834,0.9972119331359863,,,,,,,
4634184000.0,102.71,1.659999966621399,12041169408.0,1707.927736410861,186.0,0.012026092037558556,765952.0,1625.5349884033203,2.847895530511124e-14,0.0,1.8768178224563599,-0.018768176436424255,0.06040509045124054,-0.018768178299069405,1.862645149230957e-09,0.0,0.022091951221227646,0.34691715240478516,0.7421076907257441,0.7964116334915161,0.6225773692131042,0.8185036182403564,0.6831350922584534,2.3982279300689697,0.9972555637359619,,,,,,,
4634184000.0,109.59,1.8200000524520874,12041169408.0,1792.466033031707,187.0,0.008785775862634182,770048.0,1627.8201084136963,2.216629657603164e-14,0.0,2.0539984703063965,-0.020539982244372368,0.07484456151723862,-0.020539984107017517,1.862645149230957e-09,0.0,-0.08162486553192139,0.3782346248626709,0.7394215137045492,0.8107621073722839,0.6508525609970093,0.7291372418403625,0.7409553527832031,2.2851200103759766,0.9976146221160889,,,,,,,
4634184000.0,101.8,1.5299999713897705,12041169408.0,1809.562735953294,188.0,0.0036516916006803513,774144.0,1630.0836386680603,1.854766340514402e-14,0.0,2.208787679672241,-0.022087860852479935,0.10790465772151947,-0.02208787575364113,1.4901161193847656e-08,0.0,-0.1397765427827835,0.4430798590183258,0.5934356890917727,0.6936585307121277,0.6719852089881897,0.5538820028305054,0.6948922276496887,2.2635302543640137,0.9970645904541016,,,,,,,
4634184000.0,84.72,0.3799999952316284,12041169408.0,1780.126321958502,189.0,-0.0012175944866612554,778240.0,1632.3845989704132,1.6778245459647678e-14,0.0,2.2513339519500732,-0.02251332812011242,0.13972827792167664,-0.022513339295983315,1.1175870895385742e-08,0.0,-0.1720624566078186,0.4999120831489563,0.6955706380291742,0.45985937118530273,0.7310276627540588,0.28779688477516174,0.9060462117195129,2.3009603023529053,0.9970650672912598,,,,,,,
4634184000.0,81.24,-0.1599999964237213,12041169408.0,1812.432791146652,190.0,0.00040621880907565355,782336.0,1634.644544839859,1.478851763270228e-14,0.0,2.3920135498046875,-0.02392013929784298,0.10611332952976227,-0.02392013557255268,-3.725290298461914e-09,0.0,-0.11394040286540985,0.4464223384857178,0.393389501618416,0.3571074604988098,0.4177792966365814,0.24316704273223877,0.5731799006462097,2.259945869445801,0.9970190525054932,,,,,,,
4634184000.0,79.87,0.10999999940395355,12041169408.0,1765.0507614176693,191.0,0.000677032396197319,786432.0,1636.9651579856873,1.4094628242311558e-14,0.0,2.368142604827881,-0.023681430146098137,0.12355241179466248,-0.02368142642080784,-3.725290298461914e-09,0.0,-0.027963871136307716,0.4963698387145996,0.4572697950029053,0.19546586275100708,0.46680915355682373,0.16750198602676392,0.6737726926803589,2.320613145828247,0.9973278045654297,,,,,,,
,,,,,,,,,,,,,,,,,,,,,,,,,,0.09507977217435837,0.11688024550676346,0.07171284407377243,0.09507977217435837,0.11688024550676346,0.07171284407377243,
,,,,,,,,,,,,,,,,,,,,,,,,,,0.024856045842170715,0.07517804950475693,0.05950462818145752,0.024856045842170715,0.07517804950475693,0.05950462818145752,
,,,,,,,,,,,,,,,,,,,,,,,,,,0.02090436965227127,0.0663604661822319,0.0533769316971302,0.02090436965227127,0.0663604661822319,0.0533769316971302,
,,,,,,,,,,,,,,,,,,,,,,,,,,0.016156457364559174,0.06126478686928749,0.048372335731983185,0.016156457364559174,0.06126478686928749,0.048372335731983185,
,,,,,,,,,,,,,,,,,,,,,,,,,,0.01332031935453415,0.05429264158010483,0.04377039521932602,0.01332031935453415,0.05429264158010483,0.04377039521932602,
,,,,,,,,,,,,,,,,,,,,,,,,,,0.01434446219354868,0.05086423084139824,0.04135468229651451,0.01434446219354868,0.05086423084139824,0.04135468229651451,
,,,,,,,,,,,,,,,,,,,,,,,,,,,,,,,,0.95
4634184000.0,83.38,0.3400000035762787,11990521856.0,17.001690750859975,192.0,0.005554932169616222,790528.0,1877.8823738098145,1.301216079330203e-14,0.0,2.312870979309082,-0.02312871441245079,0.08373549580574036,-0.023128708824515343,-5.587935447692871e-09,0.0,-0.04263550788164139,0.4070548713207245,0.584355725921016,0.3973555862903595,0.4727161228656769,0.3547201156616211,0.6313817501068115,240.9172158241272,0.9974751472473145,,,,,,,
4634184000.0,90.26,0.8700000047683716,12041169408.0,1810.658979914601,193.0,0.006505596451461315,794624.0,1880.1445336341858,1.3477066684863814e-14,0.0,2.2826364040374756,-0.022826362401247025,0.07931750267744064,-0.022826364263892174,2.7939677238464355e-09,0.0,0.0068343994207680225,0.3982800841331482,0.5447901462487729,0.31867897510528564,0.4435223937034607,0.3255133628845215,0.5903135538101196,2.262159824371338,0.9968042373657227,,,,,,,
4634184000.0,93.56,1.3600000143051147,12041169408.0,1798.3987203845545,194.0,0.010709262453019619,798720.0,1882.4221153259277,1.662038562333379e-14,0.0,2.1440629959106445,-0.021440614014863968,0.06160992383956909,-0.021440628916025162,1.4901161193847656e-08,0.0,0.08754335343837738,0.33997678756713867,0.6441941373613106,0.2334960252046585,0.4784713685512543,0.3210393786430359,0.5699578523635864,2.2775816917419434,0.9971299171447754,,,,,,,
4634184000.0,96.36,1.5499999523162842,12041169408.0,1768.3531529009242,195.0,0.009494883939623833,802816.0,1884.7383947372437,1.7284784714632906e-14,0.0,2.1031081676483154,-0.021031074225902557,0.04927073419094086,-0.021031081676483154,7.450580596923828e-09,0.0,0.070781409740448,0.3058664798736572,0.6180054436190923,0.2556537389755249,0.36889588832855225,0.3264351487159729,0.49488386511802673,2.316279411315918,0.9973583221435547,,,,,,,
4634184000.0,92.72,1.5299999713897705,12041169408.0,1718.5404602822568,196.0,0.007461627945303917,806912.0,1887.121812582016,1.935777926842519e-14,0.0,2.0092618465423584,-0.02009260281920433,0.06061072647571564,-0.020092617720365524,1.5366822481155396e-08,0.0,0.053448788821697235,0.344083696603775,0.6066365391902717,0.16210216283798218,0.3683111369609833,0.21555094420909882,0.5486142635345459,2.383417844772339,0.9972438812255859,,,,,,,
4634184000.0,92.54,1.2799999713897705,12041169408.0,1757.219119630609,197.0,0.007875657640397549,811008.0,1889.4527683258057,2.081321226476973e-14,0.0,1.970033884048462,-0.01970033161342144,0.05992010235786438,-0.019700339064002037,7.450580596923828e-09,0.0,0.06760498881340027,0.3395555019378662,0.4934702440858654,0.1700371652841568,0.34250408411026,0.23764213919639587,0.4770987033843994,2.330955743789673,0.9971487522125244,,,,,,,
4634184000.0,95.55,1.4500000476837158,12041169408.0,1760.46951239132,198.0,0.011411253362894058,815104.0,1891.779420375824,2.1311077902375075e-14,0.0,2.014346122741699,-0.020143460482358932,0.05409689247608185,-0.020143460482358932,0.0,0.0,0.11270122975111008,0.3090558648109436,0.5551942622514193,0.23943015933036804,0.31944218277931213,0.3521313965320587,0.46339553594589233,2.3266520500183105,0.997098445892334,,,,,,,
4634184000.0,107.08,2.0899999141693115,12041169408.0,1782.0087918635224,199.0,0.01276985090225935,819200.0,1894.077950000763,2.189047554335133e-14,0.0,1.9847135543823242,-0.019847121089696884,0.16774632036685944,-0.019847135990858078,1.4901161193847656e-08,0.0,0.15273547172546387,0.558785080909729,0.20978585439353814,0.18221233785152435,0.3323749899864197,0.3349478244781494,0.6285971999168396,2.298529624938965,0.997178316116333,,,,,,,
4634184000.0,105.72,2.119999885559082,12041169408.0,1799.4709205170366,200.0,0.009516410529613495,823296.0,1896.3541746139526,2.185231162687984e-14,0.0,2.025993824005127,-0.02025994472205639,0.05421316623687744,-0.020259937271475792,-7.450580596923828e-09,0.0,0.08211002498865128,0.3189186751842499,0.6547089239674824,0.23130469024181366,0.3738187551498413,0.31341472268104553,0.5427343249320984,2.2762246131896973,0.9971721172332764,,,,,,,
4634184000.0,102.92,1.8899999856948853,12041169408.0,1775.7693888515976,201.0,0.011147914454340935,827392.0,1898.66078042984,2.3663362935799626e-14,0.0,1.9696965217590332,-0.019696960225701332,0.06038498133420944,-0.01969696395099163,3.725290298461914e-09,0.0,0.11564449965953827,0.32775378227233887,0.4728561589190292,0.2768518328666687,0.2542620301246643,0.3924963176250458,0.45142248272895813,2.306605815887451,0.9970703125,,,,,,,
4634184000.0,112.39,2.140000104904175,12041169408.0,1748.3918015065594,202.0,0.010466063395142555,831488.0,1901.0035047531128,2.5772786682587423e-14,0.0,1.9464709758758545,-0.019464710727334023,0.05706958845257759,-0.019464708864688873,-1.862645149230957e-09,0.0,0.09622988849878311,0.3238897919654846,0.6194082429431331,0.362161785364151,0.35557276010513306,0.4583916664123535,0.5250099897384644,2.342724323272705,0.9976491928100586,,,,,,,
4634184000.0,119.95,2.4700000286102295,12041169408.0,1801.0310178062311,203.0,0.011958766728639603,835584.0,1903.2777576446533,2.6088506355215202e-14,0.0,1.9216694831848145,-0.01921670138835907,0.05934615433216095,-0.019216693937778473,-7.450580596923828e-09,0.0,0.09410908818244934,0.3314552903175354,0.584178663284401,0.49736881256103516,0.33944031596183777,0.5914779305458069,0.5140100717544556,2.2742528915405273,0.9971089363098145,,,,,,,
4634184000.0,119.21,2.380000114440918,12041169408.0,1792.5253195085938,204.0,0.010192862711846828,839680.0,1905.5628020763397,2.6652291484907664e-14,0.0,1.9621803760528564,-0.019621804356575012,0.06430218368768692,-0.019621802493929863,-1.862645149230957e-09,0.0,0.04717584326863289,0.3555413782596588,0.6395435084281298,0.4654187560081482,0.4008074700832367,0.5125945806503296,0.592193603515625,2.2850444316864014,0.9971427917480469,,,,,,,
4634184000.0,110.29,2.3299999237060547,12041169408.0,1807.5271119557992,205.0,0.014541398733854294,843776.0,1907.8288815021515,2.4360721773142302e-14,0.0,1.9418940544128418,-0.01941893994808197,0.05470714718103409,-0.01941893994808197,0.0,0.0,0.0927681103348732,0.3175421357154846,0.5981692092741375,0.5926117897033691,0.37269628047943115,0.6853798627853394,0.500933051109314,2.2660794258117676,0.9974639415740967,,,,,,,
4634184000.0,107.85,2.4000000953674316,12041169408.0,1719.6876895249402,206.0,0.014401249587535858,847872.0,1910.2107093334198,2.5071958398292793e-14,0.0,1.9313879013061523,-0.019313868135213852,0.06849847733974457,-0.019313879311084747,1.1175870895385742e-08,0.0,0.08200956881046295,0.36097535490989685,0.6239033080655121,0.7569286823272705,0.4259333312511444,0.8389382362365723,0.5886102318763733,2.3818278312683105,0.9975419044494629,,,,,,,
4634184000.0,112.1,2.9200000762939453,12041169408.0,1809.1417940947183,207.0,0.0118134506046772,851968.0,1912.474766254425,2.286712486032627e-14,0.0,2.056203603744507,-0.020562028512358665,0.08031332492828369,-0.020562035962939262,7.450580596923828e-09,0.0,0.0027073565870523453,0.40082234144210815,0.719987877103493,0.679620623588562,0.6726698875427246,0.6823279857635498,0.7574665546417236,2.264056921005249,0.9971833229064941,,,,,,,
4634184000.0,116.54,2.5,12041169408.0,1800.3845793266698,208.0,0.011542601510882378,856064.0,1914.749835729599,1.971166285752446e-14,0.0,2.190873146057129,-0.02190873771905899,0.06776053458452225,-0.021908730268478394,-7.450580596923828e-09,0.0,-0.008225733414292336,0.3680849075317383,0.6983700892894179,0.9185400605201721,0.5118346810340881,0.9103143215179443,0.6702098846435547,2.27506947517395,0.9974501132965088,,,,,,,
4634184000.0,105.87,2.0899999141693115,12041169408.0,1739.4943747482625,209.0,0.010598242282867432,860160.0,1917.1045429706573,2.2435178714808046e-14,0.0,2.104245662689209,-0.02104247361421585,0.08792328089475632,-0.021042456850409508,-1.6763806343078613e-08,0.0,-0.13638219237327576,0.39659154415130615,0.6775030268524501,1.0474255084991455,0.5631311535835266,0.9110433459281921,0.6983619928359985,2.3547072410583496,0.9973394870758057,,,,,,,
4634184000.0,92.45,1.8300000429153442,12041169408.0,1794.1355948664773,210.0,0.011418720707297325,864256.0,1919.3875365257263,2.2494159312991258e-14,0.0,2.0916202068328857,-0.02091621235013008,0.07504760473966599,-0.020916201174259186,-1.210719347000122e-08,0.0,-0.08927875757217407,0.3770400583744049,0.7214472375486568,1.1448962688446045,0.5886058211326599,1.0556175708770752,0.7143874764442444,2.2829935550689697,0.997351884841919,,,,,,,
4634184000.0,96.86,2.059999942779541,12041169408.0,1811.491012279008,211.0,0.013584868982434273,868352.0,1921.64865732193,2.0577289872036886e-14,0.0,2.1291537284851074,-0.021291542798280716,0.17497336864471436,-0.021291537210345268,-5.587935447692871e-09,0.0,-0.008854363113641739,0.5915689468383789,0.5696819315786118,1.112699270248413,0.6381930708885193,1.1038448810577393,0.9018006324768066,2.2611207962036133,0.9973819255828857,,,,,,,
4634184000.0,105.83,2.4800000190734863,12041169408.0,1762.4322883336558,212.0,0.014404964633286,872448.0,1923.9727182388306,2.2147214617795896e-14,0.0,2.0949456691741943,-0.02094944939017296,0.09807392954826355,-0.020949456840753555,7.450580596923828e-09,0.0,-0.05376410484313965,0.4396640360355377,0.7069368701840899,1.1335043907165527,0.6376357674598694,1.079740285873413,0.8121577501296997,2.3240609169006348,0.997028112411499,,,,,,,
4634184000.0,114.4,2.759999990463257,12041169408.0,1754.7929996504688,213.0,0.008832546882331371,876544.0,1926.306896686554,1.8844301119536055e-14,0.0,2.1881093978881836,-0.0218810997903347,0.0917351245880127,-0.021881094202399254,-5.587935447692871e-09,0.0,-0.017298219725489616,0.4280371367931366,0.6591778227837214,1.1127738952636719,0.6045047044754028,1.095475673675537,0.7331916689872742,2.3341784477233887,0.9968307018280029,,,,,,,
4634184000.0,118.41,2.690000057220459,12041169408.0,1745.0704111815376,214.0,0.013991324231028557,880640.0,1928.654079914093,1.9524312722118964e-14,0.0,2.205475330352783,-0.022054748609662056,0.08211769163608551,-0.022054752334952354,3.725290298461914e-09,0.0,-0.010737398639321327,0.4051668345928192,0.7303118344793949,1.039900541305542,0.6484237313270569,1.0291630029678345,0.7801945209503174,2.3471832275390625,0.9972145557403564,,,,,,,
4634184000.0,127.07,2.619999885559082,12041169408.0,1751.964696928705,215.0,0.009098678827285767,884736.0,1930.992026567459,2.138914045879403e-14,0.0,2.1430463790893555,-0.021430451422929764,0.10441466420888901,-0.02143046259880066,1.1175870895385742e-08,0.0,-0.03231009095907211,0.4558904767036438,0.6178168551520252,0.9748613834381104,0.6163680553436279,0.9425512552261353,0.7374366521835327,2.337946653366089,0.9973540306091309,,,,,,,
4634184000.0,124.86,2.569999933242798,12041169408.0,1799.8551287880534,216.0,0.011952617205679417,888832.0,1933.2677652835846,2.2034457591857404e-14,0.0,2.1246466636657715,-0.021246466785669327,0.09302204847335815,-0.021246466785669327,0.0,0.0,0.0016986671835184097,0.4313776195049286,0.6271964501856613,0.9250459671020508,0.588264524936676,0.9267446398735046,0.7065088152885437,2.2757387161254883,0.9979615211486816,,,,,,,
4634184000.0,126.2,2.75,12041169408.0,1755.7014933182684,217.0,0.015613136813044548,892928.0,1935.6007359027863,2.419939248987646e-14,0.0,2.0032482147216797,-0.020032484084367752,0.09333404898643494,-0.020032482221722603,-1.1641532182693481e-09,0.0,-0.006492436397820711,0.4320549964904785,0.7402222999727956,1.0145070552825928,0.7242562174797058,1.0080146789550781,0.8476921319961548,2.33297061920166,0.996985912322998,,,,,,,
4634184000.0,121.33,2.759999990463257,12041169408.0,1822.5763749655878,218.0,0.012755800038576126,897024.0,1937.8481040000916,2.5998300734464408e-14,0.0,2.018810749053955,-0.020188115537166595,0.08815044164657593,-0.02018810622394085,-9.313225746154785e-09,0.0,-0.007999524474143982,0.41985705494880676,0.7378944934257448,1.0646836757659912,0.7184808254241943,1.0566840171813965,0.8200934529304504,2.247368097305298,0.9974985122680664,,,,,,,
4634184000.0,121.91,3.140000104904175,12041169408.0,1754.446062014728,219.0,0.017908791080117226,901120.0,1940.182744026184,2.5842175621626495e-14,0.0,2.035041093826294,-0.020350420847535133,0.18068057298660278,-0.020350409671664238,-1.1175870895385742e-08,0.0,0.10350021719932556,0.592228353023529,0.5074251560624141,0.9672112464904785,0.5827999114990234,1.0707114934921265,0.843826413154602,2.3346400260925293,0.997302770614624,,,,,,,
4634184000.0,121.93,2.940000057220459,12041169408.0,1743.7060596682893,220.0,0.009224757552146912,905216.0,1942.531763792038,2.8118132822108066e-14,0.0,1.9720385074615479,-0.01972039043903351,0.09484600275754929,-0.01972038485109806,-5.587935447692871e-09,0.0,-0.0701792761683464,0.429897665977478,0.6303072148950924,0.9470650553703308,0.6142812967300415,0.8768858313560486,0.7070410251617432,2.349019765853882,0.9973328113555908,,,,,,,
4634184000.0,125.52,2.9000000953674316,12041169408.0,1803.818557990426,221.0,0.010314750485122204,909312.0,1944.802502155304,2.500777362968165e-14,0.0,2.0633416175842285,-0.020633412525057793,0.06647244095802307,-0.02063341625034809,3.725290298461914e-09,0.0,-0.01707959547638893,0.3642602562904358,0.7135043134605435,0.8952455520629883,0.6059708595275879,0.8781659603118896,0.6805386543273926,2.270738363265991,0.9976143836975098,,,,,,,
4634184000.0,111.21,2.190000057220459,12041169408.0,1771.7812078998943,222.0,0.010998262092471123,913408.0,1947.1143000125885,2.3037127760971998e-14,0.0,2.1235392093658447,-0.021235378459095955,0.06097927689552307,-0.021235391497612,1.30385160446167e-08,0.0,-0.05377564579248428,0.34510260820388794,0.718662471393677,0.8366096019744873,0.6128191351890564,0.7828339338302612,0.6506305932998657,2.311797857284546,0.9968705177307129,,,,,,,
4634184000.0,103.28,2.0,12041169408.0,1756.030260372821,223.0,0.01073447335511446,917504.0,1949.4468338489532,2.110811525568579e-14,0.0,2.1535754203796387,-0.021535757929086685,0.060908567160367966,-0.021535754203796387,-2.7939677238464355e-09,0.0,-0.015237124636769295,0.34873291850090027,0.7008259330966111,0.8040058612823486,0.586730420589447,0.7887687683105469,0.6375745534896851,2.332533836364746,0.9971425533294678,,,,,,,
,,,,,,,,,,,,,,,,,,,,,,,,,,0.023249004036188126,0.15860608220100403,0.13990169763565063,0.023249004036188126,0.15860608220100403,0.13990169763565063,
,,,,,,,,,,,,,,,,,,,,,,,,,,0.014239741489291191,0.12576715648174286,0.11870778352022171,0.014239741489291191,0.12576715648174286,0.11870778352022171,
,,,,,,,,,,,,,,,,,,,,,,,,,,0.011940907686948776,0.11559929698705673,0.10329669713973999,0.011940907686948776,0.11559929698705673,0.10329669713973999,
,,,,,,,,,,,,,,,,,,,,,,,,,,0.010580923408269882,0.10256332159042358,0.09385981410741806,0.010580923408269882,0.10256332159042358,0.09385981410741806,
,,,,,,,,,,,,,,,,,,,,,,,,,,0.008992175571620464,0.09710541367530823,0.08599924296140671,0.008992175571620464,0.09710541367530823,0.08599924296140671,
,,,,,,,,,,,,,,,,,,,,,,,,,,0.010163478553295135,0.08760879188776016,0.07715208828449249,0.010163478553295135,0.08760879188776016,0.07715208828449249,
,,,,,,,,,,,,,,,,,,,,,,,,,,,,,,,,1.7
4634184000.0,103.92,1.7400000095367432,11990521856.0,17.007956097327607,224.0,0.008567269891500473,921600.0,2190.275301218033,1.6696713456276768e-14,0.0,2.222205877304077,-0.02222205325961113,0.055517468601465225,-0.022222058847546577,5.587935447692871e-09,0.0,-0.03697890043258667,0.3312012553215027,0.6882169446929536,0.5192863941192627,0.4708532989025116,0.48230746388435364,0.5931516289710999,240.8284673690796,0.9974002838134766,,,,,,,
4634184000.0,104.2,1.7100000381469727,12041169408.0,1775.1073890285957,225.0,0.0066688172519207,925696.0,2192.5827672481537,1.640701463578864e-14,0.0,2.138706684112549,-0.021387048065662384,0.06725997477769852,-0.021387066692113876,1.862645149230957e-08,0.0,-0.023915423080325127,0.36603376269340515,0.7105648684849116,0.5882676243782043,0.5502426028251648,0.5643521547317505,0.680370569229126,2.3074660301208496,0.9972090721130371,,,,,,,
4634184000.0,107.77,1.659999966621399,12041169408.0,1734.1000022105402,226.0,0.010072855278849602,929792.0,2194.944799423218,1.8153881176097286e-14,0.0,2.1435024738311768,-0.021435031667351723,0.06496362388134003,-0.021435024216771126,-7.450580596923828e-09,0.0,0.04020656645298004,0.3582485318183899,0.7097342461045238,0.6517225503921509,0.5585983991622925,0.6919291019439697,0.6649462580680847,2.362032175064087,0.9978394508361816,,,,,,,
4634184000.0,117.12,2.2699999809265137,12041169408.0,1695.1915086638464,227.0,0.014151930809020996,933888.0,2197.3610455989838,1.739060284666749e-14,0.0,2.137002468109131,-0.02137003093957901,0.1218952164053917,-0.021370023488998413,-7.450580596923828e-09,0.0,0.13809114694595337,0.4741056561470032,0.6591668282769512,0.6485813856124878,0.5608397126197815,0.7866725921630859,0.8120900988578796,2.416246175765991,0.99721360206604,,,,,,,
4634184000.0,132.12,2.680000066757202,12041169408.0,1746.818684838871,228.0,0.010354476980865002,937984.0,2199.705879688263,1.7159884624362576e-14,0.0,2.192905902862549,-0.02192908152937889,0.041044946759939194,-0.0219290591776371,-2.2351741790771484e-08,0.0,0.0574997216463089,0.2807185649871826,0.7233246044468531,0.6099684238433838,0.437529593706131,0.6674681305885315,0.5336860418319702,2.344834089279175,0.9971637725830078,,,,,,,
4634184000.0,132.86,2.6600000858306885,12041169408.0,1682.53638160059,229.0,0.008450033143162727,942080.0,2202.1402995586395,1.8648277366750676e-14,0.0,2.139944076538086,-0.02139943651854992,0.05968686565756798,-0.021399440243840218,3.725290298461914e-09,0.0,0.040757887065410614,0.34313449263572693,0.7038018910077279,0.6738741397857666,0.4911342263221741,0.7146320343017578,0.6304827332496643,2.434419870376587,0.9970898628234863,,,,,,,
4634184000.0,134.14,2.5799999237060547,12041169408.0,1766.2447883815985,230.0,0.013345674611628056,946176.0,2204.4593439102173,1.736458199452784e-14,0.0,2.213831901550293,-0.022138318046927452,0.12252825498580933,-0.022138318046927452,0.0,0.0,0.0991305485367775,0.48506399989128113,0.6943352958454391,0.7268229722976685,0.5946459174156189,0.825953483581543,0.877357006072998,2.319044351577759,0.9973490238189697,,,,,,,
4634184000.0,136.07,2.630000114440918,12041169408.0,1762.0823237181164,231.0,0.011307461187243462,950272.0,2206.783866405487,1.6764367671839864e-14,0.0,2.1895623207092285,-0.021895632147789,0.08603103458881378,-0.021895622834563255,-8.381903171539307e-09,0.0,0.05567612498998642,0.4111003577709198,0.6916880442656541,0.7166945934295654,0.5789452195167542,0.7723706960678101,0.7403765916824341,2.3245224952697754,0.9973750114440918,,,,,,,
4634184000.0,136.44,2.880000114440918,12041169408.0,1780.2063774358471,232.0,0.011310804635286331,954368.0,2209.0847232341766,1.6077417175353048e-14,0.0,2.2358107566833496,-0.022358108311891556,0.05507827550172806,-0.022358106449246407,-9.313225746154785e-10,0.0,0.020863749086856842,0.33128243684768677,0.770536342317532,0.7708559036254883,0.5868110656738281,0.7917196154594421,0.6915783882141113,2.300856828689575,0.9973902702331543,,,,,,,
4634184000.0,133.97,2.549999952316284,12041169408.0,1712.9236872727904,233.0,0.008452038280665874,958464.0,2211.475956439972,1.6894471932538124e-14,0.0,2.2016232013702393,-0.022016234695911407,0.09410189092159271,-0.02201623097062111,-3.725290298461914e-09,0.0,0.011572184041142464,0.43372318148612976,0.6836380361269979,0.8497410416603088,0.6015575528144836,0.8613132238388062,0.7711173892021179,2.391233205795288,0.9970993995666504,,,,,,,
4634184000.0,129.6,2.390000104904175,12041169408.0,1790.9156917412408,234.0,0.011318672448396683,962560.0,2213.7630546092987,1.7182436029550274e-14,0.0,2.2078857421875,-0.022078845649957657,0.07301732152700424,-0.022078856825828552,1.1175870895385742e-08,0.0,0.012166582979261875,0.3819977045059204,0.7759163747793177,1.003197193145752,0.6804749965667725,1.0153636932373047,0.8069667816162109,2.2870981693267822,0.9972903728485107,,,,,,,
4634184000.0,132.66,2.4100000858306885,12041169408.0,1783.7405910601315,235.0,0.01227540336549282,966656.0,2216.0593526363373,1.505566504800271e-14,0.0,2.31494140625,-0.023149410262703896,0.09095731377601624,-0.023149413987994194,3.725290298461914e-09,0.0,0.030643869191408157,0.4254641830921173,0.6104440679656611,0.9833657145500183,0.6337702870368958,1.0140094757080078,0.6816759705543518,2.296298027038574,0.9970457553863525,,,,,,,
4634184000.0,135.49,2.5399999618530273,12041169408.0,1754.2964695791138,236.0,0.008184813894331455,970752.0,2218.3941917419434,1.5138931774849596e-14,0.0,2.302194118499756,-0.023021938279271126,0.10904012620449066,-0.023021940141916275,1.862645149230957e-09,0.0,-0.06861576437950134,0.46197861433029175,0.7285546508511619,0.9022570848464966,0.8339638710021973,0.8336412906646729,0.8867080807685852,2.334839105606079,0.9973983764648438,,,,,,,
4634184000.0,127.78,2.559999942779541,12041169408.0,1799.9133964760613,237.0,0.012148221954703331,974848.0,2220.669856786728,1.4818007931793886e-14,0.0,2.304129123687744,-0.023041289299726486,0.09327982366085052,-0.023041291162371635,9.313225746154785e-10,0.0,0.019844312220811844,0.43152210116386414,0.7972755697260554,0.9837020635604858,0.8671000599861145,1.0035462379455566,0.9584069848060608,2.275665044784546,0.997389554977417,,,,,,,
4634184000.0,131.06,2.509999990463257,12041169408.0,1793.4025441665276,238.0,0.011598439887166023,978944.0,2222.9537835121155,1.5123319263565804e-14,0.0,2.269359588623047,-0.022693587467074394,0.12522709369659424,-0.02269359491765499,7.450580596923828e-09,0.0,-0.04438748210668564,0.4985424876213074,0.7129978685668749,1.0234043598175049,0.831567108631134,0.9790167808532715,0.9305925965309143,2.2839267253875732,0.9970173835754395,,,,,,,
4634184000.0,126.59,2.5399999618530273,12041169408.0,1715.2444141062854,239.0,0.01228083111345768,983040.0,2225.3417813777924,1.6247420075998775e-14,0.0,2.167691707611084,-0.021676911041140556,0.08519555628299713,-0.021676916629076004,5.587935447692871e-09,0.0,0.031464725732803345,0.41163384914398193,0.7950377006557524,1.2318021059036255,0.8325276374816895,1.263266921043396,0.9092308878898621,2.38799786567688,0.9973785877227783,,,,,,,
4634184000.0,138.93,2.7200000286102295,12041169408.0,1727.072876093842,240.0,0.00954937469214201,987136.0,2227.71342420578,1.6762632948363887e-14,0.0,2.130084991455078,-0.021300850436091423,0.0979982316493988,-0.021300848573446274,-1.862645149230957e-09,0.0,0.015655120834708214,0.4424920380115509,0.7518401070844696,1.2131609916687012,0.7975567579269409,1.2288161516189575,0.8882590532302856,2.371642827987671,0.9973218441009521,,,,,,,
4634184000.0,146.19,3.1700000762939453,12041169408.0,1707.5732827352392,241.0,0.013079749420285225,991232.0,2230.112149953842,1.5073012282762477e-14,0.0,2.183864116668701,-0.02183864824473858,0.12198549509048462,-0.021838640794157982,-7.450580596923828e-09,0.0,0.02092888206243515,0.4935508370399475,0.7808289564219615,1.2316782474517822,0.8862448930740356,1.2526072263717651,1.0542420148849487,2.398725748062134,0.997225284576416,,,,,,,
4634184000.0,151.07,3.4800000190734863,12041169408.0,1680.5614863241556,242.0,0.01458579208701849,995328.0,2232.5494306087494,1.4091158795359604e-14,0.0,2.239577293395996,-0.022395772859454155,0.14094722270965576,-0.022395772859454155,0.0,0.0,-0.04841799661517143,0.5287895202636719,0.7564473135542328,1.2793279886245728,0.8863462805747986,1.230910062789917,1.0714857578277588,2.4372806549072266,0.9975922107696533,,,,,,,
4634184000.0,145.99,3.619999885559082,12041169408.0,1736.7688578595505,243.0,0.015143859200179577,999424.0,2234.9078330993652,1.4948112192492147e-14,0.0,2.260392189025879,-0.02260393276810646,0.09422577917575836,-0.022603921592235565,-1.1175870895385742e-08,0.0,0.06534123420715332,0.42921677231788635,0.7028106694337426,1.446706771850586,0.73775714635849,1.5120478868484497,0.7873359322547913,2.3584024906158447,0.9969887733459473,,,,,,,
4634184000.0,147.1,4.03000020980835,12041169408.0,1730.3511424886526,244.0,0.01634172536432743,1003520.0,2237.274982690811,1.5291587440735555e-14,0.0,2.2737674713134766,-0.022737674415111542,0.21261632442474365,-0.022737674415111542,0.0,0.0,0.051250092685222626,0.6501609683036804,0.7257141682539854,1.5623661279678345,0.9739506244659424,1.6136162281036377,1.2414213418960571,2.367149591445923,0.9972703456878662,,,,,,,
4634184000.0,144.25,3.8499999046325684,12041169408.0,1730.8502512975936,245.0,0.010643230751156807,1007616.0,2239.641449689865,1.3171755353091896e-14,0.0,2.368316650390625,-0.023683149367570877,0.14216859638690948,-0.02368316613137722,1.6763806343078613e-08,0.0,0.0016367142088711262,0.5332953929901123,0.7131433563788964,1.5286157131195068,0.8626081347465515,1.5302523374557495,0.9957156777381897,2.366466999053955,0.9974608421325684,,,,,,,
4634184000.0,156.25,4.010000228881836,12041169408.0,1764.01663938307,246.0,0.01361840683966875,1011712.0,2241.9634232521057,1.3515230601335304e-14,0.0,2.352013111114502,-0.023520123213529587,0.169792041182518,-0.023520130664110184,7.450580596923828e-09,0.0,-0.041418612003326416,0.5813356041908264,0.7556221838691505,1.4176099300384521,0.9809610843658447,1.376191258430481,1.1759693622589111,2.3219735622406006,0.9972412586212158,,,,,,,
4634184000.0,155.69,3.640000104904175,12041169408.0,1752.810709897824,247.0,0.009418928995728493,1015808.0,2244.300241470337,1.52881179937836e-14,0.0,2.291350841522217,-0.022913500666618347,0.16225078701972961,-0.022913508117198944,8.381903171539307e-09,0.0,-0.12412279844284058,0.5560311079025269,0.6347536058989466,1.650296688079834,0.8075181245803833,1.5261739492416382,0.9200387001037598,2.336818218231201,0.9971423149108887,,,,,,,
4634184000.0,142.78,2.8299999237060547,12041169408.0,1752.9781145444213,248.0,0.009148425422608852,1019904.0,2246.636836528778,1.4722598140615162e-14,0.0,2.2863690853118896,-0.02286369726061821,0.13936740159988403,-0.022863689810037613,-7.450580596923828e-09,0.0,-0.08609160780906677,0.5209503769874573,0.6889724491821168,1.5352380275726318,0.8776639103889465,1.4491465091705322,0.9341077208518982,2.336595058441162,0.9972231388092041,,,,,,,
4634184000.0,149.77,2.859999895095825,12041169408.0,1724.1710025347916,249.0,0.011469880118966103,1024000.0,2249.012470960617,1.4450246554886803e-14,0.0,2.303347110748291,-0.02303345873951912,0.14692845940589905,-0.023033469915390015,1.1175870895385742e-08,0.0,-0.022279873490333557,0.5416938066482544,0.5667319961067652,1.473850131034851,0.7243993878364563,1.4515702724456787,0.8229538798332214,2.3756344318389893,0.9975671768188477,,,,,,,
4634184000.0,146.06,2.5999999046325684,12041169408.0,1754.588870449792,250.0,0.009969847276806831,1028096.0,2251.346920967102,1.4998419173295474e-14,0.0,2.2818875312805176,-0.022818872705101967,0.13299345970153809,-0.022818874567747116,1.862645149230957e-09,0.0,0.05768054723739624,0.512566089630127,0.7001415006766357,1.4293739795684814,0.7585596442222595,1.4870545864105225,0.9360343813896179,2.3344500064849854,0.997234582901001,,,,,,,
4634184000.0,157.62,3.380000114440918,12041169408.0,1778.804603556518,251.0,0.01648823916912079,1032192.0,2253.6495909690857,1.4785048185750327e-14,0.0,2.2498421669006348,-0.022498425096273422,0.18512970209121704,-0.022498421370983124,-3.725290298461914e-09,0.0,0.007058273069560528,0.6085227727890015,0.7936763481566775,1.4624189138412476,1.15841805934906,1.4694771766662598,1.3396841287612915,2.3026700019836426,0.997260332107544,,,,,,,
4634184000.0,167.45,3.9100000858306885,12041169408.0,1777.0783269269757,252.0,0.015687990933656693,1036288.0,2255.9544978141785,1.614160194396419e-14,0.0,2.2279531955718994,-0.022279541939496994,0.16681846976280212,-0.0222795307636261,-1.1175870895385742e-08,0.0,0.04735783487558365,0.5757387280464172,0.45529522399893163,1.3675494194030762,0.7262002229690552,1.414907455444336,0.78009033203125,2.3049068450927734,0.9971740245819092,,,,,,,
4634184000.0,164.71,4.019999980926514,12041169408.0,1778.5396115776564,253.0,0.013762393966317177,1040384.0,2258.2575109004974,1.7378459782335653e-14,0.0,2.2273359298706055,-0.022273359820246696,0.18103140592575073,-0.022273357957601547,-1.862645149230957e-09,0.0,0.06714905798435211,0.5980310440063477,0.775522806557121,1.2871791124343872,1.088608741760254,1.3543281555175781,1.2622274160385132,2.3030130863189697,0.99739670753479,,,,,,,
4634184000.0,175.14,5.090000152587891,12041169408.0,1811.0668819020436,254.0,0.02111155167222023,1044480.0,2260.5191612243652,1.7300397225916697e-14,0.0,2.258610725402832,-0.022586090490221977,0.2474256157875061,-0.02258610725402832,1.6763806343078613e-08,0.0,0.2085912972688675,0.6719011068344116,0.7837226180461141,1.5201497077941895,1.2238065004348755,1.728740930557251,1.444773554801941,2.261650323867798,0.9969854354858398,,,,,,,
4634184000.0,169.11,5.070000171661377,12041169408.0,1786.0326179029614,255.0,0.014160246588289738,1048576.0,2262.812512397766,1.71581499008866e-14,0.0,2.2608354091644287,-0.02260836400091648,0.17718008160591125,-0.022608352825045586,-1.1175870895385742e-08,0.0,0.08929208666086197,0.5886183977127075,0.8213536893626389,1.354501485824585,1.0833767652511597,1.4437936544418335,1.3926336765289307,2.293351173400879,0.9971075057983398,,,,,,,
,,,,,,,,,,,,,,,,,,,,,,,,,,0.04147213697433472,0.26530539989471436,0.20510782301425934,0.04147213697433472,0.26530539989471436,0.20510782301425934,
,,,,,,,,,,,,,,,,,,,,,,,,,,0.020568972453475,0.18293850123882294,0.15921272337436676,0.020568972453475,0.18293850123882294,0.15921272337436676,
,,,,,,,,,,,,,,,,,,,,,,,,,,0.012785417027771473,0.14323394000530243,0.1269359439611435,0.012785417027771473,0.14323394000530243,0.1269359439611435,
