CpuMaxMemory,EpLenMean,EpRewMean,GpuMaxMemory,IPS_total,Iter,Misc/FrameRewMean,Misc/InteractCount,Misc/TimeElapsed,Opt/approxkl,Opt/clipfrac,Opt/entropy,Opt/loss_pi,Opt/loss_vf,Opt/negent,Opt/pg,Opt/pi_kl,VFStats/AdvMean,VFStats/AdvStd,VFStats/EV,VFStats/VpredMean,VFStats/VpredStd,VFStats/VtargMean,VFStats/VtargStd,del_time,wait_optimization,scaled/pol_distance,scaled/vf_aux,scaled/vf_true,unscaled/pol_distance,unscaled/vf_aux,unscaled/vf_true,EvalEpMean
3032248000.0,84.7,-2.174999952316284,11965495808.0,1650.2315465390452,0.0,-0.011364280246198177,4096.0,2.4820759296417236,3.989863994746656e-15,0.0,2.7067718505859375,-0.02706771157681942,0.16151922941207886,-0.027067717164754868,5.587935447692871e-09,0.0,-0.18081112205982208,0.5389032363891602,-0.0028105086205405527,0.02279668301343918,0.010232396423816681,-0.1580144464969635,0.538147509098053,2.4820759296417236,1.0233898162841797,,,,,,,
3082992000.0,79.81720430107526,-2.204301118850708,12031147008.0,1778.382384729562,1.0,-0.015827026218175888,8192.0,4.785292625427246,4.399258735077183e-15,0.0,2.701078414916992,-0.02701076678931713,0.18444408476352692,-0.027010783553123474,1.6763806343078613e-08,0.0,-0.17941859364509583,0.5803269147872925,0.0061223193497402795,-0.10820469260215759,0.0174211785197258,-0.2876232862472534,0.582111656665802,2.3032166957855225,0.9965391159057617,,,,,,,
3132356000.0,79.84,-2.130000114440918,12031147008.0,1807.6067981263454,2.0,-0.00866194348782301,12288.0,7.05127215385437,4.8780424144467815e-15,0.0,2.6955008506774902,-0.02695498988032341,0.1411323845386505,-0.026955008506774902,1.7695128917694092e-08,0.0,-0.08193615078926086,0.5249938368797302,0.020088180847408377,-0.253531277179718,0.037415195256471634,-0.33546745777130127,0.5303477048873901,2.265979528427124,0.9968657493591309,,,,,,,
3181460000.0,86.86,-2.140000104904175,12031147008.0,1826.3103141713511,3.0,-0.011718152090907097,16384.0,9.294045448303223,5.329070518200751e-15,0.0,2.6880745887756348,-0.026880759745836258,0.16957123577594757,-0.026880744844675064,-1.4901161193847656e-08,0.0,-0.05868179351091385,0.5794660449028015,0.01729748560875588,-0.5016263723373413,0.07638595253229141,-0.5603080987930298,0.5845436453819275,2.2427732944488525,0.9972217082977295,,,,,,,
3230828000.0,88.76,-2.2899999618530273,12031147008.0,1799.6023020419775,4.0,-0.01605379581451416,20480.0,11.570103883743286,5.7870375158586285e-15,0.0,2.6835975646972656,-0.026835981756448746,0.23352313041687012,-0.02683597430586815,-7.450580596923828e-09,0.0,-0.03275976702570915,0.6827055215835571,0.017995521901004063,-0.934019923210144,0.12955963611602783,-0.9667797088623047,0.6889325380325317,2.2760584354400635,0.9967858791351318,,,,,,,
3279932000.0,82.47,-2.640000104904175,12031147008.0,1845.336942401633,5.0,-0.015598084777593613,24576.0,13.789752721786499,6.390721285498557e-15,0.0,2.6714699268341064,-0.026714684441685677,0.3171716332435608,-0.02671469934284687,1.4901161193847656e-08,0.0,0.14378389716148376,0.7834662199020386,0.0007013455508497746,-1.6870794296264648,0.24125947058200836,-1.5432956218719482,0.7837410569190979,2.219648838043213,0.9966652393341064,,,,,,,
3329036000.0,87.05,-2.869999885559082,12031147008.0,1768.065790661269,6.0,-0.011301342397928238,28672.0,16.10640859603882,5.703770789011742e-15,0.0,2.682579278945923,-0.026825793087482452,0.2382337749004364,-0.026825793087482452,0.0,0.0,0.11148418486118317,0.6812871098518372,0.063705781060583,-1.3376379013061523,0.18959908187389374,-1.2261537313461304,0.7040831446647644,2.3166558742523193,0.9978711605072021,,,,,,,
3378404000.0,84.98,-2.5199999809265137,12031147008.0,1838.2405725253489,7.0,-0.012393347918987274,32768.0,18.33462619781494,4.690692279041286e-15,0.0,2.6873884201049805,-0.02687389776110649,0.20447474718093872,-0.026873882859945297,-1.4901161193847656e-08,0.0,0.085481658577919,0.6338300108909607,0.07986396814930508,-1.000106930732727,0.13089005649089813,-0.9146252870559692,0.6607646346092224,2.228217601776123,0.9969213008880615,,,,,,,
3427508000.0,77.99,-2.1700000762939453,12031147008.0,1818.163163289334,8.0,-0.01291249692440033,36864.0,20.587449312210083,3.9621084191310274e-15,0.0,2.6946940422058105,-0.02694695070385933,0.1724766492843628,-0.026946939527988434,-1.1175870895385742e-08,0.0,-0.010592810809612274,0.5873034000396729,0.05562501398130404,-0.6973205804824829,0.10240545868873596,-0.7079135179519653,0.6043524742126465,2.2528231143951416,0.9967544078826904,,,,,,,
3476612000.0,78.14,-1.9700000286102295,12031147008.0,1773.440816639585,9.0,-0.011715063825249672,40960.0,22.89708375930786,3.2751579226442118e-15,0.0,2.699014663696289,-0.02699013613164425,0.146363765001297,-0.026990145444869995,9.313225746154785e-09,0.0,-0.013695860281586647,0.5409356355667114,0.05283206011840891,-0.5328879952430725,0.0893835574388504,-0.5465838313102722,0.5558173656463623,2.3096344470977783,0.9968187808990479,,,,,,,
3526244000.0,80.52,-1.8899999856948853,12031147008.0,1726.6993251850863,10.0,-0.011081203818321228,45056.0,25.26923966407776,2.5673907444456745e-15,0.0,2.7020621299743652,-0.02702062763273716,0.1543293595314026,-0.027020620182156563,-7.450580596923828e-09,0.0,-0.058065999299287796,0.552595317363739,0.025057448727837883,-0.4288545250892639,0.0738103911280632,-0.4869205355644226,0.5596515536308289,2.3721559047698975,0.9972870349884033,,,,,,,
3575612000.0,79.51,-2.5999999046325684,12031147008.0,1807.7129304754417,11.0,-0.02034952864050865,49152.0,27.535086154937744,2.0886070650760757e-15,0.0,2.7033348083496094,-0.02703334391117096,0.23991161584854126,-0.027033347636461258,3.725290298461914e-09,0.0,-0.19833867251873016,0.6637714505195618,0.002125696959329737,-0.36121779680252075,0.05189690738916397,-0.5595564842224121,0.664478063583374,2.2658464908599854,0.9964790344238281,,,,,,,
3625244000.0,81.65,-2.930000066757202,12031147008.0,1818.4327809828164,12.0,-0.011822033673524857,53248.0,29.787575244903564,1.6514567491299204e-15,0.0,2.7046751976013184,-0.02704676240682602,0.19458165764808655,-0.027046751230955124,-1.1175870895385742e-08,0.0,-0.0818813145160675,0.6185080409049988,0.014096627060727673,-0.34098726511001587,0.053765617311000824,-0.422868549823761,0.6229140758514404,2.2524890899658203,0.9966392517089844,,,,,,,
3674876000.0,85.01,-2.4000000953674316,12031147008.0,1792.7460418151286,13.0,-0.013496171683073044,57344.0,32.072338342666626,1.8596235662471372e-15,0.0,2.7053942680358887,-0.02705395594239235,0.1512584388256073,-0.027053942903876305,-1.3504177331924438e-08,0.0,-0.11726640164852142,0.5374346375465393,0.016150941228567972,-0.3537643551826477,0.050738926976919174,-0.4710307717323303,0.541827917098999,2.2847630977630615,0.997143030166626,,,,,,,
3724244000.0,82.05,-2.5799999237060547,12031147008.0,1842.0682685562986,14.0,-0.013700783252716064,61440.0,34.2959258556366,1.4016565685892601e-15,0.0,2.7060601711273193,-0.027060598134994507,0.16913068294525146,-0.027060601860284805,3.725290298461914e-09,0.0,-0.10719530284404755,0.5717082619667053,0.030347893877574084,-0.38727104663848877,0.060934532433748245,-0.4944663643836975,0.5805858969688416,2.2235875129699707,0.9965693950653076,,,,,,,
3773876000.0,81.92,-2.700000047683716,12031147008.0,1822.627228306062,15.0,-0.014723416417837143,65536.0,36.54323124885559,1.3530843112619095e-15,0.0,2.7064688205718994,-0.02706468477845192,0.161756694316864,-0.027064688503742218,3.725290298461914e-09,0.0,-0.09664769470691681,0.5605795383453369,0.023660110053281835,-0.42321035265922546,0.06513723731040955,-0.5198581218719482,0.5673312544822693,2.247305393218994,0.9970290660858154,,,,,,,
3823244000.0,83.0,-2.5799999237060547,12031147008.0,1836.01103196682,16.0,-0.014220631681382656,69632.0,38.77415466308594,1.547373340571312e-15,0.0,2.7064812183380127,-0.02706480212509632,0.18600019812583923,-0.027064811438322067,9.313225746154785e-09,0.0,-0.08662939071655273,0.603808581829071,0.055143729577703304,-0.5136426687240601,0.07187220454216003,-0.6002720594406128,0.621178388595581,2.2309234142303467,0.9970860481262207,,,,,,,
3872876000.0,85.75,-1.9600000381469727,12031147008.0,1841.4171070881164,17.0,-0.004611412528902292,73728.0,40.998528480529785,1.2628786905111156e-15,0.0,2.706801414489746,-0.027068015187978745,0.11964460462331772,-0.027068013325333595,-1.862645149230957e-09,0.0,0.061384573578834534,0.48536449670791626,0.046903721691633815,-0.6223025321960449,0.090555839240551,-0.5609180331230164,0.49716395139694214,2.2243738174438477,0.996910572052002,,,,,,,
3922508000.0,82.57,-1.850000023841858,12031147008.0,1799.5195501795342,18.0,-0.014600889757275581,77824.0,43.274691581726074,1.1657341758564144e-15,0.0,2.70686411857605,-0.027068637311458588,0.20937752723693848,-0.027068641036748886,3.725290298461914e-09,0.0,-0.05205376818776131,0.6450945734977722,0.06665240370862902,-0.7368736267089844,0.098672054708004,-0.788927435874939,0.6677312850952148,2.276163101196289,0.9971396923065186,,,,,,,
3971876000.0,80.78,-2.6600000858306885,12031147008.0,1794.9819512041202,19.0,-0.015349211171269417,81920.0,45.5566086769104,1.2906342661267445e-15,0.0,2.7068347930908203,-0.027068346738815308,0.1898554563522339,-0.027068346738815308,0.0,0.0,-0.018870702013373375,0.6159930229187012,0.09649062318364887,-0.8594376444816589,0.11566109210252762,-0.8783083558082581,0.6480515003204346,2.281917095184326,0.9973251819610596,,,,,,,
4021508000.0,80.86,-2.299999952316284,12031147008.0,1770.112665128917,20.0,-0.010216542519629002,86016.0,47.870585680007935,1.0824674490095276e-15,0.0,2.706760883331299,-0.027067601680755615,0.191940039396286,-0.027067609131336212,7.450580596923828e-09,0.0,0.13265351951122284,0.6052871942520142,0.07489100219263622,-1.0101141929626465,0.13792358338832855,-0.8774605393409729,0.6293104887008667,2.313977003097534,0.9972522258758545,,,,,,,
4070876000.0,77.55,-2.0,12031147008.0,1840.1120253307595,21.0,-0.013299262151122093,90112.0,50.0965371131897,1.3877787807814457e-15,0.0,2.7066307067871094,-0.027066299691796303,0.2073218673467636,-0.0270663071423769,7.450580596923828e-09,0.0,0.054580822587013245,0.6416893005371094,0.06288352917629425,-1.0237332582473755,0.13863521814346313,-0.9691524505615234,0.6628695726394653,2.2259514331817627,0.9972186088562012,,,,,,,
4120508000.0,82.47,-2.2200000286102295,12031147008.0,1831.9714491793602,22.0,-0.011275162920355797,94208.0,52.33237981796265,1.2628786905111156e-15,0.0,2.7067832946777344,-0.02706783637404442,0.16966459155082703,-0.02706783264875412,-4.190951585769653e-09,0.0,0.04841236770153046,0.5805752873420715,0.06458921891621783,-0.9569506645202637,0.1577165424823761,-0.9085382223129272,0.6002848148345947,2.235842704772949,0.9968721866607666,,,,,,,
4169876000.0,84.77,-2.4800000190734863,12031147008.0,1796.2880109409202,23.0,-0.014364229515194893,98304.0,54.612637758255005,1.1657341758564144e-15,0.0,2.7067413330078125,-0.02706742286682129,0.19257678091526031,-0.027067413553595543,-8.381903171539307e-09,0.0,0.01506071537733078,0.620500385761261,0.14858968790577498,-0.9340343475341797,0.15081806480884552,-0.9189735651016235,0.672469437122345,2.2802579402923584,0.9969985485076904,,,,,,,
4219508000.0,83.41,-2.4000000953674316,12031147008.0,1811.7657240421454,24.0,-0.013330462388694286,102400.0,56.87341570854187,1.339206523454095e-15,0.0,2.7067949771881104,-0.02706795185804367,0.20218400657176971,-0.02706794999539852,-1.862645149230957e-09,0.0,-0.008279078640043736,0.6359230875968933,0.05414271142246396,-0.8454761505126953,0.14044712483882904,-0.8537552356719971,0.653870701789856,2.2607779502868652,0.9971921443939209,,,,,,,
4269140000.0,83.03,-2.140000104904175,12031147008.0,1744.5248041735688,25.0,-0.011361159384250641,106496.0,59.221333026885986,1.4918621893400541e-15,0.0,2.7065672874450684,-0.027065671980381012,0.20027920603752136,-0.027065671980381012,9.313225746154785e-10,0.0,0.03224189952015877,0.632152259349823,0.08640287973742078,-0.870774507522583,0.1660827398300171,-0.838532567024231,0.6613696217536926,2.347917318344116,0.9971704483032227,,,,,,,
4318508000.0,81.88,-2.2899999618530273,12031147008.0,1822.6539129431055,26.0,-0.013496085070073605,110592.0,61.468605518341064,1.1102230246251565e-15,0.0,2.706779718399048,-0.02706778608262539,0.17625777423381805,-0.027067797258496284,1.1175870895385742e-08,0.0,-0.0243479423224926,0.5933032035827637,0.08638328422275665,-0.7669649124145508,0.17320628464221954,-0.7913128733634949,0.6207184791564941,2.247272491455078,0.996870756149292,,,,,,,
4368140000.0,81.57,-2.950000047683716,12031147008.0,1749.7522710796338,27.0,-0.018386874347925186,114688.0,63.809508323669434,1.2559397966072083e-15,0.0,2.7067012786865234,-0.027067018672823906,0.23377254605293274,-0.027067013084888458,-6.05359673500061e-09,0.0,-0.13389137387275696,0.6706176400184631,0.04021668279829216,-0.7633174657821655,0.1868867427110672,-0.8972088098526001,0.6845235228538513,2.340902805328369,0.9970526695251465,,,,,,,
4417504000.0,84.17,-2.890000104904175,12031147008.0,1823.733361782941,28.0,-0.011780587956309319,118784.0,66.0554506778717,1.3739009929736312e-15,0.0,2.7063148021698,-0.027063148096203804,0.16323786973953247,-0.027063148096203804,0.0,0.0,0.013514401391148567,0.5712904930114746,0.07004602001323479,-0.8138234615325928,0.1871163696050644,-0.8003090023994446,0.5924152135848999,2.2459423542022705,0.9970173835754395,,,,,,,
4467136000.0,84.5,-2.880000114440918,12031147008.0,1795.9655891209236,29.0,-0.01874398998916149,122880.0,68.33611798286438,1.1726730697603216e-15,0.0,2.7062602043151855,-0.027062594890594482,0.21560685336589813,-0.02706260234117508,6.51925802230835e-09,0.0,-0.08422411978244781,0.6513245105743408,0.10389086176893436,-0.8290646076202393,0.19914235174655914,-0.9132887125015259,0.6880451440811157,2.280667304992676,0.9971699714660645,,,,,,,
4516504000.0,86.23,-2.9700000286102295,12031147008.0,1861.3176868780438,30.0,-0.01189330592751503,126976.0,70.53670954704285,1.4779844015322396e-15,0.0,2.7059500217437744,-0.027059493586421013,0.19202634692192078,-0.02705949917435646,5.587935447692871e-09,0.0,0.05549364537000656,0.6173055768013,0.11309402122950307,-0.914128839969635,0.21718473732471466,-0.8586351871490479,0.6554830074310303,2.200591564178467,0.9967520236968994,,,,,,,
4566136000.0,84.21,-1.9700000286102295,12031147008.0,1830.9493527630013,31.0,-0.009080212563276291,131072.0,72.77380037307739,1.5543122344752192e-15,0.0,2.705056667327881,-0.02705056592822075,0.1711868941783905,-0.02705056592822075,0.0,0.0,0.08838462084531784,0.5784838795661926,0.1694160679808795,-0.975060224533081,0.25409504771232605,-0.8866755962371826,0.6347452998161316,2.237090826034546,0.9967060089111328,,,,,,,
,,,,,,,,,,,,,,,,,,,,,,,,,,0.0004529014404397458,0.23938097059726715,0.2179850935935974,0.0004529014404397458,0.23938097059726715,0.2179850935935974,
,,,,,,,,,,,,,,,,,,,,,,,,,,0.0001490840077167377,0.21123167872428894,0.2039475440979004,0.0001490840077167377,0.21123167872428894,0.2039475440979004,
,,,,,,,,,,,,,,,,,,,,,,,,,,0.00019337808771524578,0.1926126927137375,0.19094569981098175,0.00019337808771524578,0.1926126927137375,0.19094569981098175,
,,,,,,,,,,,,,,,,,,,,,,,,,,0.00017059234960470349,0.18536001443862915,0.18368381261825562,0.00017059234960470349,0.18536001443862915,0.18368381261825562,
,,,,,,,,,,,,,,,,,,,,,,,,,,0.00014596490655094385,0.1783139407634735,0.17701542377471924,0.00014596490655094385,0.1783139407634735,0.17701542377471924,
,,,,,,,,,,,,,,,,,,,,,,,,,,0.00011142215225845575,0.16686417162418365,0.16272255778312683,0.00011142215225845575,0.16686417162418365,0.16272255778312683,
,,,,,,,,,,,,,,,,,,,,,,,,,,,,,,,,-2.52
4584896000.0,82.81,-2.009999990463257,11990518784.0,17.00614784646956,32.0,-0.013048016466200352,135168.0,313.6278748512268,1.9567680809018384e-15,0.0,2.704233407974243,-0.027042333036661148,0.11890926957130432,-0.027042333036661148,-9.313225746154785e-10,0.0,-0.014819227159023285,0.48750069737434387,0.4951035668305712,-0.6443750858306885,0.36275893449783325,-0.6591943502426147,0.6860789656639099,240.8540744781494,0.9974465370178223,,,,,,,
4584896000.0,83.8,-2.1500000953674316,12041169408.0,1848.4646795842839,33.0,-0.01367512159049511,139264.0,315.84376788139343,2.220446049250313e-15,0.0,2.7033329010009766,-0.02703334391117096,0.17906701564788818,-0.027033329010009766,-1.4901161193847656e-08,0.0,0.004826202057301998,0.5984966158866882,0.42206340296674727,-0.6430962085723877,0.3842558264732361,-0.6382700204849243,0.7872662544250488,2.215893030166626,0.9968724250793457,,,,,,,
4584896000.0,82.35,-1.7899999618530273,12041169408.0,1793.594083391276,34.0,-0.006427527405321598,143360.0,318.1274507045746,2.275957200481571e-15,0.0,2.701899528503418,-0.027018988505005836,0.10480821132659912,-0.027018994092941284,5.587935447692871e-09,0.0,0.06075888127088547,0.45384475588798523,0.5446902829154711,-0.6774754524230957,0.40702739357948303,-0.6167166233062744,0.6725953817367554,2.2836828231811523,0.9974372386932373,,,,,,,
4584896000.0,79.39,-2.5199999809265137,12041169408.0,1846.1440209623836,35.0,-0.017569055780768394,147456.0,320.34612917900085,2.4216739724636227e-15,0.0,2.698728322982788,-0.026987280696630478,0.17705875635147095,-0.026987282559275627,9.313225746154785e-10,0.0,0.0210082046687603,0.594779372215271,0.5234093907806956,-0.8128899931907654,0.5226313471794128,-0.791881799697876,0.8615553379058838,2.2186784744262695,0.9968512058258057,,,,,,,
4584896000.0,76.69,-2.450000047683716,12041169408.0,1824.8569270471244,36.0,-0.011278750374913216,151552.0,322.59068870544434,2.2065682614424986e-15,0.0,2.6989898681640625,-0.026989897713065147,0.11301210522651672,-0.026989897713065147,0.0,0.0,0.07499341666698456,0.4695253372192383,0.5768314768369676,-0.7020797729492188,0.4937855005264282,-0.6270864009857178,0.7217759490013123,2.2445595264434814,0.9967982769012451,,,,,,,
4584896000.0,75.56,-2.1700000762939453,12041169408.0,1840.5790544365577,37.0,-0.014791366644203663,155648.0,324.8160753250122,2.2551405187698492e-15,0.0,2.696582078933716,-0.02696581557393074,0.13455307483673096,-0.02696581929922104,3.725290298461914e-09,0.0,0.04721342772245407,0.5166645050048828,0.6102070608553216,-0.8401691913604736,0.5871455073356628,-0.7929556965827942,0.8275450468063354,2.225386619567871,0.996894359588623,,,,,,,
4584896000.0,75.87,-2.559999942779541,12041169408.0,1854.639541799068,38.0,-0.015144247561693192,159744.0,327.0245907306671,2.6922908347160046e-15,0.0,2.695657730102539,-0.026956576853990555,0.13546720147132874,-0.026956576853990555,0.0,0.0,0.07312056422233582,0.5154150128364563,0.6208681719166934,-0.8785337209701538,0.5900718569755554,-0.8054131269454956,0.8370703458786011,2.2085154056549072,0.9972000122070312,,,,,,,
4584896000.0,82.42,-2.700000047683716,12041169408.0,1766.6109412868861,39.0,-0.014711080119013786,163840.0,329.3431544303894,2.5396351688300456e-15,0.0,2.6950345039367676,-0.026950335130095482,0.13691768050193787,-0.026950344443321228,9.313225746154785e-09,0.0,-0.0031864726915955544,0.523347020149231,0.5757631259287443,-0.7919811606407166,0.5310550928115845,-0.7951676249504089,0.8034992814064026,2.31856369972229,0.9969325065612793,,,,,,,
4584896000.0,82.96,-2.630000114440918,12041169408.0,1884.8419901230457,40.0,-0.011903516948223114,167936.0,331.5162808895111,2.706168622523819e-15,0.0,2.6958541870117188,-0.026958545669913292,0.1368139386177063,-0.026958541944622993,-3.725290298461914e-09,0.0,0.0619685985147953,0.5194743871688843,0.601057853726336,-0.7719548940658569,0.6131408214569092,-0.7099862694740295,0.8224493861198425,2.173126459121704,0.9973843097686768,,,,,,,
4584896000.0,80.83,-1.9700000286102295,12041169408.0,1742.8762367870613,41.0,-0.00936620868742466,172032.0,333.86641907691956,2.5118795932144167e-15,0.0,2.6963250637054443,-0.026963243260979652,0.13129426538944244,-0.02696325071156025,7.450580596923828e-09,0.0,0.07172636687755585,0.5074512362480164,0.6000549452923728,-0.7049630880355835,0.5835422873497009,-0.6332367062568665,0.8024058938026428,2.3501381874084473,0.997251033782959,,,,,,,
4584896000.0,78.43,-1.809999942779541,12041169408.0,1750.9046257254895,42.0,-0.013172430917620659,176128.0,336.20578122138977,2.518818487118324e-15,0.0,2.6963090896606445,-0.026963092386722565,0.1336628794670105,-0.026963090524077415,-1.862645149230957e-09,0.0,0.05097451061010361,0.5145794153213501,0.5736997454423001,-0.6308538317680359,0.5455628037452698,-0.5798793435096741,0.7881242036819458,2.339362144470215,0.9968407154083252,,,,,,,
4584896000.0,80.39,-2.2699999809265137,12041169408.0,1868.7459416196277,43.0,-0.011096842586994171,180224.0,338.3976254463196,2.5604518505417673e-15,0.0,2.6948564052581787,-0.026948561891913414,0.12065288424491882,-0.026948563754558563,1.862645149230957e-09,0.0,0.019106585532426834,0.49091702699661255,0.5588294452783467,-0.5852593183517456,0.547676682472229,-0.5661526918411255,0.739102840423584,2.1918442249298096,0.9970228672027588,,,,,,,
4584896000.0,82.71,-2.119999885559082,12041169408.0,1799.570821507193,44.0,-0.010888446122407913,184320.0,340.67372369766235,2.456368441983159e-15,0.0,2.6951050758361816,-0.026951055973768234,0.13733315467834473,-0.026951050385832787,-4.6566128730773926e-09,0.0,0.03067685291171074,0.523251473903656,0.5481306670315358,-0.5997730493545532,0.5575294494628906,-0.5690962076187134,0.7784022092819214,2.2760982513427734,0.9970893859863281,,,,,,,
4584896000.0,80.57,-2.4200000762939453,12041169408.0,1743.9729879062977,45.0,-0.01769404672086239,188416.0,343.02238392829895,2.3314683517128287e-15,0.0,2.694883346557617,-0.026948826387524605,0.13457120954990387,-0.026948831975460052,5.587935447692871e-09,0.0,-0.04430118575692177,0.5169574618339539,0.615829532004975,-0.5676695108413696,0.5802186131477356,-0.6119706630706787,0.8340514898300171,2.3486602306365967,0.9969136714935303,,,,,,,
4584896000.0,84.15,-2.509999990463257,12041169408.0,1826.1464693293815,46.0,-0.00986430048942566,192512.0,345.26535844802856,2.4771851236948805e-15,0.0,2.69464373588562,-0.026946427300572395,0.12888383865356445,-0.02694643661379814,9.080395102500916e-09,0.0,-0.008366953581571579,0.5077013373374939,0.4736125966387923,-0.463179349899292,0.49376028776168823,-0.47154632210731506,0.6997703313827515,2.2429745197296143,0.9968993663787842,,,,,,,
4584896000.0,83.04,-2.140000104904175,12041169408.0,1838.7914728232472,47.0,-0.011302911676466465,196608.0,347.4929084777832,2.5326962749261384e-15,0.0,2.69425368309021,-0.026942534372210503,0.101228728890419,-0.026942536234855652,1.862645149230957e-09,0.0,0.03564917668700218,0.44859305024147034,0.5838916227057618,-0.5317437052726746,0.5467490553855896,-0.4960945248603821,0.695423424243927,2.2275500297546387,0.9968008995056152,,,,,,,
4584896000.0,83.4,-2.5299999713897705,12041169408.0,1850.454477880815,48.0,-0.013258492574095726,200704.0,349.7064187526703,2.55351295663786e-15,0.0,2.693246841430664,-0.02693246491253376,0.12995950877666473,-0.02693246863782406,3.725290298461914e-09,0.0,-0.035339243710041046,0.5086583495140076,0.5434100106024498,-0.5199142694473267,0.5492035150527954,-0.5552535057067871,0.7527711987495422,2.213510274887085,0.9964699745178223,,,,,,,
4584896000.0,83.03,-2.569999933242798,12041169408.0,1815.0007024465403,49.0,-0.010963303968310356,204800.0,351.96316719055176,2.42861286636753e-15,0.0,2.695650339126587,-0.02695651166141033,0.1427878439426422,-0.026956502348184586,-9.313225746154785e-09,0.0,0.006858780048787594,0.5344140529632568,0.5538955444649833,-0.5344414710998535,0.591438889503479,-0.5275826454162598,0.8001281023025513,2.2567484378814697,0.9975736141204834,,,,,,,
4584896000.0,80.0,-1.7799999713897705,12041169408.0,1834.2148789483697,50.0,-0.010445615276694298,208896.0,354.1962752342224,2.282896094385478e-15,0.0,2.6973772048950195,-0.026973770931363106,0.11540741473436356,-0.026973770931363106,0.0,0.0,-0.011817572638392448,0.4803451895713806,0.5397776033553736,-0.45357340574264526,0.5317076444625854,-0.46539098024368286,0.7080591917037964,2.2331080436706543,0.9970593452453613,,,,,,,
4584896000.0,81.08,-1.5700000524520874,12041169408.0,1820.2995871448575,51.0,-0.009698892012238503,212992.0,356.4464542865753,2.1718737919229625e-15,0.0,2.6968278884887695,-0.026968272402882576,0.12616872787475586,-0.026968277990818024,5.587935447692871e-09,0.0,0.017722472548484802,0.5020805597305298,0.5692627744098964,-0.5510823726654053,0.6312389373779297,-0.533359944820404,0.7650101780891418,2.2501790523529053,0.9965450763702393,,,,,,,
4584896000.0,81.4,-2.0899999141693115,12041169408.0,1812.69746038941,52.0,-0.01611291617155075,217088.0,358.70607018470764,2.4147350785597155e-15,0.0,2.6972525119781494,-0.02697252482175827,0.15676704049110413,-0.02697252482175827,-9.313225746154785e-10,0.0,-0.03174203634262085,0.5591089725494385,0.581127763334226,-0.6042520999908447,0.6690428256988525,-0.6359941959381104,0.8638845086097717,2.259615898132324,0.9967851638793945,,,,,,,
4584896000.0,80.29,-2.630000114440918,12041169408.0,1842.8932468604337,53.0,-0.010998905636370182,221184.0,360.92866230010986,2.3592239273284576e-15,0.0,2.696692943572998,-0.026966936886310577,0.10762465000152588,-0.02696692943572998,-7.450580596923828e-09,0.0,0.02794831432402134,0.4631636440753937,0.6086625101165773,-0.5514973402023315,0.6333519816398621,-0.5235490798950195,0.740386962890625,2.2225921154022217,0.9969475269317627,,,,,,,
4584896000.0,79.16,-2.299999952316284,12041169408.0,1872.3473533765393,54.0,-0.010154027491807938,225280.0,363.1162905693054,2.4771851236948805e-15,0.0,2.6956496238708496,-0.026956485584378242,0.12551455199718475,-0.02695649489760399,9.313225746154785e-09,0.0,0.03634702414274216,0.4997689425945282,0.5621693385989146,-0.5713375806808472,0.6329988241195679,-0.5349905490875244,0.7552942633628845,2.1876282691955566,0.9966633319854736,,,,,,,
4584896000.0,83.33,-1.7000000476837158,12041169408.0,1807.1740289232096,55.0,-0.010256188921630383,229376.0,365.3828127384186,2.42861286636753e-15,0.0,2.6965713500976562,-0.026965709403157234,0.11347676813602448,-0.026965713128447533,3.725290298461914e-09,0.0,-0.005498614627867937,0.47642281651496887,0.6004004381941419,-0.49926096200942993,0.5591939687728882,-0.5047595500946045,0.7536680102348328,2.266522169113159,0.9969651699066162,,,,,,,
4584896000.0,84.77,-1.8200000524520874,12041169408.0,1869.7876886712315,56.0,-0.008100399747490883,233472.0,367.57343578338623,2.67841304690819e-15,0.0,2.696901321411133,-0.02696901187300682,0.10316675901412964,-0.02696901187300682,0.0,0.0,0.014714117161929607,0.4540565609931946,0.5005660760233185,-0.42228513956069946,0.49017152190208435,-0.407571017742157,0.6424967646598816,2.1906230449676514,0.9968690872192383,,,,,,,
4584896000.0,84.08,-1.8700000047683716,12041169408.0,1848.6610001224558,57.0,-0.01292468886822462,237568.0,369.7890934944153,2.338407245616736e-15,0.0,2.6984329223632812,-0.026984328404068947,0.10839757323265076,-0.026984328404068947,0.0,0.0,-0.046540435403585434,0.46333739161491394,0.6104178317374229,-0.4124166965484619,0.5074983835220337,-0.45895713567733765,0.7423313856124878,2.2156577110290527,0.9964659214019775,,,,,,,
4584896000.0,81.43,-1.940000057220459,12041169408.0,1746.3868357618426,58.0,-0.010091171599924564,241664.0,372.13450741767883,2.7200464103316335e-15,0.0,2.697021007537842,-0.026970215141773224,0.11888846009969711,-0.026970209553837776,-5.587935447692871e-09,0.0,-0.010509192943572998,0.48756998777389526,0.508636192933161,-0.42368021607398987,0.4735523462295532,-0.43418940901756287,0.6955612897872925,2.34541392326355,0.9987185001373291,,,,,,,
4584896000.0,81.53,-2.319999933242798,12041169408.0,1845.8865516793076,59.0,-0.01651398092508316,245760.0,374.3534953594208,2.8380076066980564e-15,0.0,2.694808006286621,-0.026948094367980957,0.15009726583957672,-0.026948079466819763,-1.4901161193847656e-08,0.0,-0.05447409301996231,0.5452519059181213,0.6055828325858533,-0.5431306958198547,0.5972230434417725,-0.5976047515869141,0.8681989908218384,2.2189879417419434,0.9969565868377686,,,,,,,
4584896000.0,84.7,-2.9700000286102295,12041169408.0,1780.654193700582,60.0,-0.011700993403792381,249856.0,376.6537735462189,2.7911700728466826e-15,0.0,2.69401216506958,-0.0269401203840971,0.12680330872535706,-0.0269401203840971,0.0,0.0,-0.01712672784924507,0.503363847732544,0.6121621450291601,-0.5798771381378174,0.6142042875289917,-0.5970038175582886,0.8082707524299622,2.3002781867980957,0.9968929290771484,,,,,,,
4584896000.0,85.52,-2.309999942779541,12041169408.0,1825.8262414464225,61.0,-0.010614639148116112,253952.0,378.897141456604,2.8727020762175925e-15,0.0,2.692922353744507,-0.026929225772619247,0.14445993304252625,-0.02692922204732895,-3.725290298461914e-09,0.0,0.038769565522670746,0.5361780524253845,0.5407777367478285,-0.7160179018974304,0.6494723558425903,-0.6772483587265015,0.7912206053733826,2.243367910385132,0.9977583885192871,,,,,,,
4584896000.0,86.35,-2.5999999046325684,12041169408.0,1819.372352425063,62.0,-0.015828175470232964,258048.0,381.1484673023224,2.9073965457371287e-15,0.0,2.6920835971832275,-0.026920830830931664,0.1564604640007019,-0.026920834556221962,3.725290298461914e-09,0.0,-0.031148258596658707,0.5585936307907104,0.6080080229112641,-0.6828944087028503,0.6228744983673096,-0.7140426635742188,0.8921902179718018,2.251325845718384,0.9967646598815918,,,,,,,
4631320000.0,84.95,-2.5,12041169408.0,1852.6788974600204,63.0,-0.0100619001314044,262144.0,383.3593199253082,3.5232233797088952e-15,0.0,2.687425136566162,-0.02687424048781395,0.10727746039628983,-0.026874251663684845,1.0244548320770264e-08,0.0,0.10907947272062302,0.4502289295196533,0.6289135251094627,-0.6942098140716553,0.6431012749671936,-0.5851303339004517,0.7390874624252319,2.21085262298584,0.9969408512115479,,,,,,,
,,,,,,,,,,,,,,,,,,,,,,,,,,0.001620065071620047,0.15364214777946472,0.13257910311222076,0.001620065071620047,0.15364214777946472,0.13257910311222076,
,,,,,,,,,,,,,,,,,,,,,,,,,,0.0012075843987986445,0.12358648329973221,0.11635490506887436,0.0012075843987986445,0.12358648329973221,0.11635490506887436,
,,,,,,,,,,,,,,,,,,,,,,,,,,0.001076200627721846,0.10927299410104752,0.10452627390623093,0.001076200627721846,0.10927299410104752,0.10452627390623093,
,,,,,,,,,,,,,,,,,,,,,,,,,,0.0008248608792200685,0.10249081254005432,0.10004502534866333,0.0008248608792200685,0.10249081254005432,0.10004502534866333,
,,,,,,,,,,,,,,,,,,,,,,,,,,0.0007694477681070566,0.09590568393468857,0.09366564452648163,0.0007694477681070566,0.09590568393468857,0.09366564452648163,
,,,,,,,,,,,,,,,,,,,,,,,,,,0.0009111473918892443,0.0941430851817131,0.09269910305738449,0.0009111473918892443,0.0941430851817131,0.09269910305738449,
,,,,,,,,,,,,,,,,,,,,,,,,,,,,,,,,-2.3
4634068000.0,80.78,-1.9299999475479126,11990521856.0,17.00588528776847,64.0,-0.012041346170008183,266240.0,624.2171130180359,4.621303340002214e-15,0.0,2.676459312438965,-0.026764586567878723,0.12166030704975128,-0.02676459215581417,4.6566128730773926e-09,0.0,-0.006440049968659878,0.4932935833930969,0.5881277675700063,-0.6141424775123596,0.6093395948410034,-0.6205825209617615,0.7686421275138855,240.85779309272766,0.9969894886016846,,,,,,,
4634068000.0,79.28,-1.690000057220459,12041169408.0,1846.7316292607502,65.0,-0.008004583418369293,270336.0,626.4350855350494,5.3464177529605195e-15,0.0,2.6729774475097656,-0.026729773730039597,0.08677099645137787,-0.026729773730039597,0.0,0.0,0.03521594777703285,0.4151432514190674,0.6483954990140104,-0.48956382274627686,0.5292654633522034,-0.4543479084968567,0.7001171708106995,2.21797251701355,1.0012497901916504,,,,,,,
4634068000.0,82.32,-1.1299999952316284,12041169408.0,1816.2863326372965,66.0,-0.0040680705569684505,274432.0,628.6902365684509,5.034167527284694e-15,0.0,2.662975311279297,-0.026629753410816193,0.0671837329864502,-0.026629753410816193,0.0,0.0,0.08738692849874496,0.3560364246368408,0.6726992039855995,-0.4920477271080017,0.5581949353218079,-0.40466076135635376,0.6223302483558655,2.2551510334014893,0.9978475570678711,,,,,,,
4634068000.0,81.82,-1.159999966621399,12041169408.0,1854.5924921897097,67.0,-0.009579146280884743,278528.0,630.8988080024719,6.017755738163544e-15,0.0,2.6239395141601562,-0.026239387691020966,0.10578065365552902,-0.026239395141601562,7.450580596923828e-09,0.0,0.06344875693321228,0.455616295337677,0.6174913684397998,-0.5147570967674255,0.5594307780265808,-0.45130836963653564,0.7366796135902405,2.208571434020996,0.9969353675842285,,,,,,,
4634068000.0,79.85,-1.2999999523162842,12041169408.0,1797.3191477252756,68.0,-0.007063746452331543,282624.0,633.1777577400208,5.734995811579324e-15,0.0,2.6311421394348145,-0.026311419904232025,0.0840761661529541,-0.026311419904232025,0.0,0.0,0.028152866289019585,0.409146249294281,0.6120072912014245,-0.4061322510242462,0.4703303277492523,-0.3779793977737427,0.6568508148193359,2.278949737548828,0.9967324733734131,,,,,,,
4634068000.0,79.41,-1.2799999713897705,12041169408.0,1797.6091390391152,69.0,-0.007083014119416475,286720.0,635.4563398361206,5.981326545168031e-15,0.0,2.6079251766204834,-0.026079250499606133,0.07015883177518845,-0.026079250499606133,-4.656612873077393e-10,0.0,0.050618577748537064,0.37119948863983154,0.5919010692490788,-0.37465447187423706,0.4765976071357727,-0.3240358829498291,0.5810649394989014,2.2785820960998535,0.9969983100891113,,,,,,,
4634068000.0,77.94,-1.3600000143051147,12041169408.0,1842.216018737131,70.0,-0.006432602182030678,290816.0,637.6797490119934,6.376843497690743e-15,0.0,2.5970168113708496,-0.025970179587602615,0.08301492780447006,-0.02597016841173172,-1.1175870895385742e-08,0.0,0.05569012463092804,0.4036932587623596,0.5778510818071351,-0.32368776202201843,0.46992799639701843,-0.2679976224899292,0.6213247776031494,2.2234091758728027,0.9973375797271729,,,,,,,
4634068000.0,76.33,-1.1399999856948853,12041169408.0,1853.5898022006097,71.0,-0.00821760855615139,294912.0,639.8895151615143,6.4514366071577456e-15,0.0,2.5636305809020996,-0.025636302307248116,0.07187826931476593,-0.025636306032538414,3.725290298461914e-09,0.0,0.0101701021194458,0.3790622055530548,0.5754210844722001,-0.26071134209632874,0.3970453143119812,-0.25054123997688293,0.5817431807518005,2.209766149520874,0.9968686103820801,,,,,,,
4634068000.0,74.92,-1.1299999952316284,12041169408.0,1796.8322781308368,72.0,-0.007114914711564779,299008.0,642.169082403183,7.455841499748317e-15,0.0,2.5218725204467773,-0.025218721479177475,0.07146208733320236,-0.025218725204467773,3.725290298461914e-09,0.0,0.02893073484301567,0.37699058651924133,0.4937058009595776,-0.15747305750846863,0.37850525975227356,-0.12854233384132385,0.5298208594322205,2.279567241668701,0.9972133636474609,,,,,,,
4634068000.0,73.92,-1.1799999475479126,12041169408.0,1827.9678858283849,73.0,-0.004793006461113691,303104.0,644.4098219871521,6.938893903907228e-15,0.0,2.5037050247192383,-0.025037048384547234,0.05367538705468178,-0.025037050247192383,1.862645149230957e-09,0.0,0.016428334638476372,0.32727208733558655,0.5463958539574066,-0.09664531797170639,0.34714969992637634,-0.08021697402000427,0.48592641949653625,2.240739583969116,0.997246503829956,,,,,,,
4634068000.0,78.26,-1.059999942779541,12041169408.0,1815.1782796522143,74.0,-0.005920860450714827,307200.0,646.6663496494293,7.287573322578567e-15,0.0,2.4540064334869385,-0.024540068581700325,0.05624553933739662,-0.024540062993764877,-5.587935447692871e-09,0.0,-0.010938218794763088,0.33525940775871277,0.5890619886840849,-0.12047813087701797,0.369779497385025,-0.13141635060310364,0.5229893326759338,2.2565276622772217,0.9967930316925049,,,,,,,
4634068000.0,77.46,-1.1200000047683716,12041169408.0,1759.677010156937,75.0,-0.005375949200242758,311296.0,648.9940495491028,7.858297346174936e-15,0.0,2.4184224605560303,-0.024184226989746094,0.05888931453227997,-0.024184223264455795,-3.725290298461914e-09,0.0,-0.01957780122756958,0.34267187118530273,0.4990755308033955,-0.07745139300823212,0.36100107431411743,-0.0970291942358017,0.4841638207435608,2.327699899673462,0.9973459243774414,,,,,,,
4634068000.0,72.75,-0.9900000095367432,12041169408.0,1854.755273974163,76.0,-0.00797678530216217,315392.0,651.202427148819,7.143591274072492e-15,0.0,2.454474449157715,-0.024544747546315193,0.04950440302491188,-0.024544743821024895,-3.725290298461914e-09,0.0,-0.022177303209900856,0.31391245126724243,0.5607974138806295,-0.009660612791776657,0.33866462111473083,-0.03183791786432266,0.47367024421691895,2.2083775997161865,0.996776819229126,,,,,,,
4634068000.0,76.39,-0.7200000286102295,12041169408.0,1798.0040312017823,77.0,-0.0027028692420572042,319488.0,653.4805088043213,7.462780393652224e-15,0.0,2.5082640647888184,-0.02508264034986496,0.056407757103443146,-0.02508264034986496,0.0,0.0,-0.01616477593779564,0.33553197979927063,0.5547596151615417,-0.017567800357937813,0.3348556458950043,-0.0337325781583786,0.5028478503227234,2.2780816555023193,0.9969131946563721,,,,,,,
4634068000.0,75.71,-0.9800000190734863,12041169408.0,1798.152136970415,78.0,-0.00711026368662715,323584.0,655.7584028244019,7.592884654350485e-15,0.0,2.4882993698120117,-0.024882996454834938,0.06720294058322906,-0.02488299272954464,-3.725290298461914e-09,0.0,-0.014070823788642883,0.3663886785507202,0.5534950193762053,-0.05877669155597687,0.37175020575523376,-0.07284752279520035,0.5483133792877197,2.2778940200805664,0.996828556060791,,,,,,,
4634068000.0,77.83,-0.8299999833106995,12041169408.0,1781.4670009241302,79.0,-0.0032817558385431767,327680.0,658.0576314926147,7.339615026857871e-15,0.0,2.536686420440674,-0.02536686509847641,0.05285236984491348,-0.02536686323583126,-1.862645149230957e-09,0.0,0.004714093171060085,0.3251281678676605,0.49072825589829716,-0.05426013469696045,0.34291839599609375,-0.04954603686928749,0.45559588074684143,2.2992286682128906,0.9969813823699951,,,,,,,
4634068000.0,80.73,-0.550000011920929,12041169408.0,1860.1189818250482,80.0,-0.003630883526057005,331776.0,660.2596411705017,6.871239688344133e-15,0.0,2.572479486465454,-0.02572479099035263,0.05308087170124054,-0.02572479471564293,3.725290298461914e-09,0.0,-0.004395171068608761,0.32583487033843994,0.4946952347883161,-0.035734497010707855,0.3286357820034027,-0.04012966528534889,0.45837488770484924,2.202009677886963,0.9966976642608643,,,,,,,
4634068000.0,79.71,-0.8600000143051147,12041169408.0,1821.0571119870672,81.0,-0.007717621512711048,335872.0,662.5088841915131,6.7914424084492e-15,0.0,2.6260056495666504,-0.026260055601596832,0.09839287400245667,-0.026260055601596832,0.0,0.0,-0.07015981525182724,0.43807554244995117,0.45705239786634244,-0.08262068033218384,0.3495030105113983,-0.15278050303459167,0.5945249795913696,2.2492430210113525,0.9969291687011719,,,,,,,
4634068000.0,78.35,-1.1200000047683716,12041169408.0,1828.4731392270503,82.0,-0.005121043883264065,339968.0,664.7490046024323,6.321332346459485e-15,0.0,2.608459949493408,-0.026084600016474724,0.05131828039884567,-0.026084598153829575,-1.862645149230957e-09,0.0,-0.012246912345290184,0.32017433643341064,0.594903319777879,-0.07086455821990967,0.3724822998046875,-0.0831114649772644,0.5030453205108643,2.2401204109191895,0.9968645572662354,,,,,,,
4634068000.0,80.92,-0.5600000023841858,12041169408.0,1793.339081248065,83.0,-0.0007987741846591234,344064.0,667.0330121517181,6.402864349830395e-15,0.0,2.650857925415039,-0.02650856412947178,0.048933397978544235,-0.026508579030632973,1.4901161193847656e-08,0.0,0.01220711413770914,0.3126366138458252,0.5271771980114247,-0.08301377296447754,0.3231385052204132,-0.07080665975809097,0.45466408133506775,2.2840075492858887,0.9967057704925537,,,,,,,
4634068000.0,84.66,-0.6700000166893005,12041169408.0,1776.3446358171088,84.0,-0.00560492929071188,348160.0,669.3388710021973,6.0559196546350336e-15,0.0,2.659214973449707,-0.026592155918478966,0.06092403829097748,-0.02659214846789837,-7.450580596923828e-09,0.0,-0.030719980597496033,0.347755491733551,0.60685255099412,-0.18742455542087555,0.40116775035858154,-0.21814453601837158,0.5546209216117859,2.305858850479126,0.996967077255249,,,,,,,
4634068000.0,82.98,-0.6600000262260437,12041169408.0,1786.9514505101172,85.0,-0.0006877694977447391,352256.0,671.6310429573059,6.0923488476305465e-15,0.0,2.6639657020568848,-0.02663966454565525,0.06445515900850296,-0.026639657095074654,-7.450580596923828e-09,0.0,0.040270429104566574,0.3568188548088074,0.46404517486086805,-0.14352889358997345,0.38715529441833496,-0.10325846076011658,0.4873979389667511,2.2921719551086426,0.997420072555542,,,,,,,
4634068000.0,78.43,-0.4699999988079071,12041169408.0,1857.9011833449895,86.0,-0.002527623437345028,356352.0,673.8356812000275,6.229392002232714e-15,0.0,2.6585469245910645,-0.02658546343445778,0.07237058877944946,-0.026585469022393227,5.587935447692871e-09,0.0,0.028568003326654434,0.3794208765029907,0.5435589917052996,-0.17873448133468628,0.392494797706604,-0.15016648173332214,0.5616022944450378,2.2046382427215576,0.9967215061187744,,,,,,,
4634068000.0,81.22,-0.20000000298023224,12041169408.0,1770.9489167029174,87.0,0.0017268802039325237,360448.0,676.148565530777,6.279698983036042e-15,0.0,2.6657094955444336,-0.026657098904252052,0.05563885718584061,-0.026657095178961754,-3.725290298461914e-09,0.0,0.09733141958713531,0.3191068172454834,0.3652013149533083,-0.1372642070055008,0.3359341323375702,-0.039932794868946075,0.4005143344402313,2.3128843307495117,0.9972362518310547,,,,,,,
4634068000.0,81.13,0.11999999731779099,12041169408.0,1794.3162338289674,88.0,-0.0011544945882633328,364544.0,678.4313292503357,6.01428629121159e-15,0.0,2.666069984436035,-0.026660703122615814,0.05565914511680603,-0.026660699397325516,-3.725290298461914e-09,0.0,0.029678162187337875,0.33236196637153625,0.5143931966769183,-0.14150209724903107,0.35956281423568726,-0.1118239313364029,0.4769456684589386,2.282763719558716,0.9969642162322998,,,,,,,
4634068000.0,80.91,-0.18000000715255737,12041169408.0,1855.571415471544,89.0,-0.002198189264163375,368640.0,680.6387355327606,6.050715484207103e-15,0.0,2.661327838897705,-0.026613274589180946,0.06999650597572327,-0.026613278314471245,3.725290298461914e-09,0.0,0.02693234011530876,0.37323135137557983,0.5387649602353739,-0.206832155585289,0.4441254734992981,-0.17989981174468994,0.5495623350143433,2.2074062824249268,0.9979450702667236,,,,,,,
4634068000.0,85.19,-0.699999988079071,12041169408.0,1845.039473083644,90.0,-0.0057930732145905495,372736.0,682.8587422370911,7.129713486264677e-15,0.0,2.656047821044922,-0.026560485363006592,0.0793699324131012,-0.026560477912425995,-7.450580596923828e-09,0.0,-0.0009154994040727615,0.39846932888031006,0.5188690689522197,-0.14486078917980194,0.3908522427082062,-0.14577630162239075,0.5744645595550537,2.2200067043304443,0.9967052936553955,,,,,,,
4634068000.0,85.4,-0.699999988079071,12041169408.0,1798.8990595288294,91.0,-0.0019739968702197075,376832.0,685.1356904506683,6.565928356572215e-15,0.0,2.651590347290039,-0.026515895500779152,0.06236443668603897,-0.02651590295135975,7.450580596923828e-09,0.0,0.0013815034180879593,0.3532101809978485,0.5070115381426952,-0.035060759633779526,0.34740760922431946,-0.033679258078336716,0.5030542612075806,2.2769482135772705,0.9968137741088867,,,,,,,
4634068000.0,79.5,-0.05000000074505806,12041169408.0,1828.065140479576,92.0,0.0008153460221365094,380928.0,687.3763108253479,7.811459812323562e-15,0.0,2.6399407386779785,-0.02639942243695259,0.05816328525543213,-0.026399407535791397,-1.4901161193847656e-08,0.0,0.031573619693517685,0.3396437168121338,0.4207431556372634,-0.05629488080739975,0.3500804305076599,-0.024721261113882065,0.446260005235672,2.2406203746795654,0.9967484474182129,,,,,,,
4634068000.0,77.6,0.05000000074505806,12041169408.0,1837.2739506471094,93.0,-0.00023346711532212794,385024.0,689.6057007312775,8.765557724110806e-15,0.0,2.622037172317505,-0.026220375671982765,0.057463642209768295,-0.026220371946692467,-3.725290298461914e-09,0.0,0.03765273839235306,0.33695292472839355,0.35679912549502735,0.020242076367139816,0.3120134472846985,0.057894814759492874,0.4201418459415436,2.2293899059295654,0.9970893859863281,,,,,,,
4634068000.0,80.89,0.05999999865889549,12041169408.0,1833.693334548689,94.0,0.0017551413038745522,389120.0,691.8394439220428,9.825473767932635e-15,0.0,2.617743492126465,-0.026177428662776947,0.03916718438267708,-0.026177434250712395,5.587935447692871e-09,0.0,0.021669786423444748,0.2790766954421997,0.4553893516480467,0.06605259329080582,0.28528541326522827,0.08772239089012146,0.37816429138183594,2.233743190765381,0.9970941543579102,,,,,,,
4634068000.0,82.15,0.14000000059604645,12041169408.0,1879.4420819475806,95.0,0.0011734100989997387,393216.0,694.0188140869141,1.069803967634897e-14,0.0,2.6102516651153564,-0.02610250934958458,0.053096748888492584,-0.026102516800165176,7.450580596923828e-09,0.0,0.01981281489133835,0.3253103196620941,0.40354978745536674,0.07502920925617218,0.3325648903846741,0.09484202414751053,0.42122167348861694,2.179370164871216,0.9967877864837646,,,,,,,
,,,,,,,,,,,,,,,,,,,,,,,,,,0.03262939304113388,0.10502507537603378,0.07497867196798325,0.03262939304113388,0.10502507537603378,0.07497867196798325,
,,,,,,,,,,,,,,,,,,,,,,,,,,0.009433877654373646,0.07558149844408035,0.06828898191452026,0.009433877654373646,0.07558149844408035,0.06828898191452026,
,,,,,,,,,,,,,,,,,,,,,,,,,,0.00715265329927206,0.0677429586648941,0.06534934043884277,0.00715265329927206,0.0677429586648941,0.06534934043884277,
,,,,,,,,,,,,,,,,,,,,,,,,,,0.005733388476073742,0.06188591569662094,0.061044756323099136,0.005733388476073742,0.06188591569662094,0.061044756323099136,
,,,,,,,,,,,,,,,,,,,,,,,,,,0.004882084671407938,0.05922837555408478,0.058979444205760956,0.004882084671407938,0.05922837555408478,0.058979444205760956,
,,,,,,,,,,,,,,,,,,,,,,,,,,0.004942264873534441,0.058079078793525696,0.05880758538842201,0.004942264873534441,0.058079078793525696,0.05880758538842201,
,,,,,,,,,,,,,,,,,,,,,,,,,,,,,,,,-0.72
4634092000.0,80.79,0.09000000357627869,11990521856.0,17.002494738242028,96.0,-0.00023518758825957775,397312.0,934.9246377944946,1.1459583282302788e-14,0.0,2.547318458557129,-0.02547319233417511,0.06468045711517334,-0.025473184883594513,-7.450580596923828e-09,0.0,0.0553019680082798,0.3554341495037079,0.37966746013709096,-0.1256893426179886,0.34812429547309875,-0.07038737833499908,0.4512808322906494,240.90582370758057,0.9975748062133789,,,,,,,
4634092000.0,78.06,0.15000000596046448,12041169408.0,1864.7856412583167,97.0,0.0023569869808852673,401408.0,937.1211369037628,1.1206313654810174e-14,0.0,2.560957431793213,-0.025609571486711502,0.05756080523133278,-0.02560957334935665,1.3969838619232178e-09,0.0,0.05003204941749573,0.33562761545181274,0.33018622428908406,-0.03811923414468765,0.2867412269115448,0.011912811547517776,0.4100914001464844,2.1964991092681885,0.9970254898071289,,,,,,,
4634092000.0,78.19,0.12999999523162842,12041169408.0,1761.712987081972,98.0,-0.0003545425715856254,405504.0,939.4461467266083,1.1600095883856909e-14,0.0,2.5598714351654053,-0.025598717853426933,0.046900905668735504,-0.025598714128136635,-4.190951585769653e-09,0.0,0.02619665116071701,0.3051856756210327,0.3441457343416523,-0.00978020764887333,0.28622370958328247,0.016416441649198532,0.37684300541877747,2.325009822845459,0.9973208904266357,,,,,,,
4634092000.0,79.65,-0.14000000059604645,12041169408.0,1824.3658750083227,99.0,-0.001183649175800383,409600.0,941.6913104057312,1.0696304952872993e-14,0.0,2.5311193466186523,-0.025311186909675598,0.060434333980083466,-0.025311192497611046,5.587935447692871e-09,0.0,0.019063815474510193,0.3471810221672058,0.4585671807917243,-0.005846605636179447,0.28377315402030945,0.013217208907008171,0.47182798385620117,2.245163679122925,0.997424840927124,,,,,,,
4634092000.0,80.34,0.10999999940395355,12041169408.0,1837.6449880311495,100.0,0.003557616611942649,413696.0,943.9202501773834,1.1319070680748666e-14,0.0,2.549891471862793,-0.025498928502202034,0.04091556370258331,-0.02549891360104084,-1.4901161193847656e-08,0.0,0.0550481341779232,0.28074911236763,0.45954663534570417,0.08152434974908829,0.2665855586528778,0.13657249510288239,0.3818908631801605,2.2289397716522217,0.9968280792236328,,,,,,,
4634092000.0,79.78,0.6299999952316284,12041169408.0,1816.029828781332,101.0,0.005704425275325775,417792.0,946.1757197380066,1.1247947018233617e-14,0.0,2.5308942794799805,-0.025308942422270775,0.03261696547269821,-0.025308942422270775,0.0,0.0,0.06704235076904297,0.2464834451675415,0.3053545791406054,0.11161936074495316,0.24502433836460114,0.17866170406341553,0.2957373559474945,2.255469560623169,0.9986271858215332,,,,,,,
4634092000.0,74.29,0.5600000023841858,12041169408.0,1801.3314629261038,102.0,0.002379861893132329,421888.0,948.4495933055878,1.2536846560884385e-14,0.0,2.541274070739746,-0.025412743911147118,0.05755951255559921,-0.02541274018585682,-3.725290298461914e-09,0.0,0.016233082860708237,0.33894479274749756,0.360123564192497,0.13837015628814697,0.24800783395767212,0.1546032428741455,0.4237218499183655,2.2738735675811768,0.9972870349884033,,,,,,,
4634092000.0,77.35,0.5,12041169408.0,1854.7674887660478,103.0,0.004651736468076706,425984.0,950.6579563617706,1.2949710748166865e-14,0.0,2.5544018745422363,-0.02554401382803917,0.044172387570142746,-0.025544017553329468,3.725290298461914e-09,0.0,0.0372326597571373,0.2949232757091522,0.42461205225260656,0.1765151023864746,0.2683882415294647,0.2137477695941925,0.388802170753479,2.2083630561828613,0.9969086647033691,,,,,,,
4634092000.0,78.95,0.49000000953674316,12041169408.0,1794.399070080591,104.0,0.0017929133027791977,430080.0,952.9406147003174,1.2850831510036187e-14,0.0,2.4914839267730713,-0.02491483837366104,0.053758956491947174,-0.02491483837366104,0.0,0.0,-0.0076948292553424835,0.3278489410877228,0.4235071801851842,0.20807652175426483,0.32300758361816406,0.20038169622421265,0.43179425597190857,2.282658338546753,0.9969663619995117,,,,,,,
4634092000.0,76.46,0.25999999046325684,12041169408.0,1840.5668286192108,105.0,0.00143785635009408,434176.0,955.1660161018372,1.296358853597468e-14,0.0,2.529557228088379,-0.025295579805970192,0.047110773622989655,-0.025295572355389595,-7.450580596923828e-09,0.0,-0.061177611351013184,0.3008337616920471,0.4959890407315021,0.30893653631210327,0.2918696701526642,0.2477589100599289,0.42374691367149353,2.2254014015197754,0.9971127510070801,,,,,,,
4634092000.0,80.19,0.46000000834465027,12041169408.0,1862.7208904003764,106.0,0.003604030702263117,438272.0,957.3649499416351,1.2731135590193787e-14,0.0,2.5517196655273438,-0.025517193600535393,0.04633903503417969,-0.025517195463180542,1.862645149230957e-09,0.0,-0.02780020609498024,0.3031957447528839,0.4433876523179746,0.30332931876182556,0.279331237077713,0.275529146194458,0.406393438577652,2.1989338397979736,0.9978444576263428,,,,,,,
4634092000.0,79.33,0.6299999952316284,12041169408.0,1822.5827556472914,107.0,0.0043363915756344795,442368.0,959.6123101711273,1.2771034230141254e-14,0.0,2.576106548309326,-0.025761060416698456,0.04122421145439148,-0.025761064141988754,3.725290298461914e-09,0.0,-0.026451274752616882,0.28595229983329773,0.34585567545900275,0.30170291662216187,0.26867103576660156,0.2752516567707062,0.3535548746585846,2.2473602294921875,0.9969227313995361,,,,,,,
4634092000.0,75.97,0.6000000238418579,12041169408.0,1829.2224865753958,108.0,0.003622678807005286,446464.0,961.8515129089355,1.2861239850892048e-14,0.0,2.56327486038208,-0.025632742792367935,0.04419539496302605,-0.025632748380303383,5.122274160385132e-09,0.0,-0.025899961590766907,0.29621174931526184,0.4665808200821856,0.2786082923412323,0.26124289631843567,0.2527083158493042,0.40557199716567993,2.2392027378082275,0.997338056564331,,,,,,,
4634092000.0,78.6,0.5199999809265137,12041169408.0,1846.646868340385,109.0,0.00338926212862134,450560.0,964.0695872306824,1.3563802858662655e-14,0.0,2.546457290649414,-0.025464564561843872,0.04818364232778549,-0.02546457201242447,7.450580596923828e-09,0.0,0.010675989091396332,0.3102850615978241,0.22937196396909754,0.21272632479667664,0.2548926770687103,0.22340229153633118,0.3534585237503052,2.218074321746826,0.9972343444824219,,,,,,,
4634092000.0,80.41,0.25999999046325684,12041169408.0,1838.6529296770902,110.0,0.00048524438170716166,454656.0,966.2973051071167,1.3086753902769033e-14,0.0,2.5688488483428955,-0.025688495486974716,0.0673886090517044,-0.02568848803639412,-7.450580596923828e-09,0.0,-0.04736196994781494,0.3640967309474945,0.43050643343313266,0.19215784966945648,0.26007452607154846,0.14479587972164154,0.48247230052948,2.227717876434326,0.9974582195281982,,,,,,,
4634092000.0,90.2,0.3700000047683716,12041169408.0,1817.6385906020387,111.0,0.001581093529239297,458752.0,968.550778388977,1.2368578383714635e-14,0.0,2.5889945030212402,-0.025889942422509193,0.050955768674612045,-0.025889944285154343,1.862645149230957e-09,0.0,-0.007467553950846195,0.3191874921321869,0.4020854811477087,0.13593469560146332,0.24845494329929352,0.1284671425819397,0.4127872586250305,2.2534732818603516,0.9977502822875977,,,,,,,
4634092000.0,86.57,0.36000001430511475,12041169408.0,1867.8537939900314,112.0,0.0014622992603108287,462848.0,970.7436695098877,1.1641729247280352e-14,0.0,2.5869264602661133,-0.025869259610772133,0.05724233016371727,-0.02586926333606243,4.190951585769653e-09,0.0,-0.012798981741070747,0.33815494179725647,0.37341276147672586,0.10213546454906464,0.23140308260917664,0.08933647722005844,0.4271937906742096,2.1928911209106445,0.9971218109130859,,,,,,,
4634092000.0,83.65,0.41999998688697815,12041169408.0,1831.6339433566623,113.0,0.004517521243542433,466944.0,972.9799242019653,1.1162945567910754e-14,0.0,2.6088762283325195,-0.026088759303092957,0.044847577810287476,-0.026088761165738106,1.862645149230957e-09,0.0,0.025624819099903107,0.2984296679496765,0.5285775540348869,0.12014345079660416,0.2482401579618454,0.14576826989650726,0.43464717268943787,2.2362546920776367,0.9971799850463867,,,,,,,
4634092000.0,83.93,0.7200000286102295,12041169408.0,1776.3053316344915,114.0,0.0031822267919778824,471040.0,975.2858340740204,1.1103964969727542e-14,0.0,2.601024866104126,-0.02601025626063347,0.05187190696597099,-0.02601024881005287,-7.450580596923828e-09,0.0,0.0477142408490181,0.31857800483703613,0.44924102302185087,0.05195993930101395,0.2476104348897934,0.09967418015003204,0.42927438020706177,2.3059098720550537,0.9971041679382324,,,,,,,
4634092000.0,83.65,0.8199999928474426,12041169408.0,1796.6984822070067,115.0,0.005886126309633255,475136.0,977.5655710697174,1.0080478118901226e-14,0.0,2.623777389526367,-0.026237765327095985,0.03523861616849899,-0.026237772777676582,7.450580596923828e-09,0.0,0.05525622144341469,0.2596929967403412,0.4424066918992525,0.11279729008674622,0.21161609888076782,0.1680535078048706,0.34777748584747314,2.2797369956970215,0.9970607757568359,,,,,,,
4634092000.0,87.03,0.5099999904632568,12041169408.0,1820.3834896953642,116.0,0.0018433998338878155,479232.0,979.8156464099884,1.0519363158323358e-14,0.0,2.607637405395508,-0.026076367124915123,0.03918498009443283,-0.02607637271285057,5.587935447692871e-09,0.0,0.010119693353772163,0.2797975242137909,0.5246732394395615,0.04821593314409256,0.2546476423740387,0.058335624635219574,0.40583336353302,2.250075340270996,0.9970533847808838,,,,,,,
4634092000.0,84.77,0.5400000214576721,12041169408.0,1770.218453008946,117.0,0.003817860735580325,483328.0,982.1294851303101,1.1013759348976748e-14,0.0,2.5998024940490723,-0.02599802054464817,0.0377962626516819,-0.02599802426993847,3.725290298461914e-09,0.0,0.04216014966368675,0.2717224061489105,0.5734006741189472,0.09059934318065643,0.23918887972831726,0.1327594816684723,0.4160211682319641,2.3138387203216553,0.9988422393798828,,,,,,,
4634092000.0,81.65,0.6399999856948853,12041169408.0,1797.0388365225087,118.0,0.005307688843458891,487424.0,984.4087903499603,1.1844691893969639e-14,0.0,2.569157838821411,-0.025691593065857887,0.032641518861055374,-0.025691578164696693,-1.4901161193847656e-08,0.0,0.0517386868596077,0.25024276971817017,0.38930577771261454,0.08500537276268005,0.23018436133861542,0.13674405217170715,0.32022082805633545,2.2793052196502686,0.9969525337219238,,,,,,,
4634092000.0,85.56,0.949999988079071,12041169408.0,1806.9411875080723,119.0,0.0053169820457696915,491520.0,986.6756045818329,1.2269699145583957e-14,0.0,2.568026542663574,-0.025680264458060265,0.03458309918642044,-0.025680264458060265,0.0,0.0,0.05169747769832611,0.25789496302604675,0.497196248888532,0.08882692456245422,0.2574307322502136,0.14052440226078033,0.3637002408504486,2.2668142318725586,0.9971721172332764,,,,,,,
4634092000.0,86.17,1.0199999809265137,12041169408.0,1821.866078461731,120.0,0.006441198289394379,495616.0,988.9238488674164,1.2470927068797266e-14,0.0,2.564795970916748,-0.02564799040555954,0.034155361354351044,-0.025647958740592003,-3.166496753692627e-08,0.0,0.06578005850315094,0.25298088788986206,0.5197715809118799,0.13050785660743713,0.2440832108259201,0.19628790020942688,0.36505958437919617,2.248244285583496,0.9971680641174316,,,,,,,
4634092000.0,89.49,1.0800000429153442,12041169408.0,1819.2625348196052,121.0,0.005707016214728355,499712.0,991.1753106117249,1.3062467774105357e-14,0.0,2.5621228218078613,-0.025621213018894196,0.03194306418299675,-0.02562122792005539,1.4901161193847656e-08,0.0,0.052983254194259644,0.24717164039611816,0.6263779203984349,0.19712534546852112,0.2851240932941437,0.25010859966278076,0.4043731987476349,2.2514617443084717,0.9969189167022705,,,,,,,
4634092000.0,84.27,0.9800000190734863,12041169408.0,1786.2456152170987,122.0,0.006214732304215431,503808.0,993.4683883190155,1.4052994878888114e-14,0.0,2.5155887603759766,-0.025155898183584213,0.03244224563241005,-0.025155887007713318,-1.1175870895385742e-08,0.0,0.042355552315711975,0.2512089014053345,0.5997654547422016,0.21414029598236084,0.28472596406936646,0.2564958333969116,0.3970797061920166,2.2930777072906494,0.9970295429229736,,,,,,,
4634092000.0,81.25,1.0399999618530273,12041169408.0,1829.7163517606414,123.0,0.007222504820674658,507904.0,995.7069866657257,1.4722598140615162e-14,0.0,2.5151073932647705,-0.025151066482067108,0.03052268549799919,-0.025151073932647705,7.450580596923828e-09,0.0,0.033051054924726486,0.24488291144371033,0.6283503784688362,0.27779239416122437,0.30771249532699585,0.31084346771240234,0.40169063210487366,2.238598346710205,0.9972131252288818,,,,,,,
4634092000.0,81.09,0.9800000190734863,12041169408.0,1879.417203821613,124.0,0.004494696855545044,512000.0,997.886385679245,1.4595963326868855e-14,0.0,2.5259146690368652,-0.02525915578007698,0.028908587992191315,-0.025259146466851234,-8.381903171539307e-09,0.0,-0.02750190906226635,0.2389032393693924,0.5425688583842045,0.37363797426223755,0.2729969024658203,0.34613609313964844,0.3532313108444214,2.179399013519287,0.9968447685241699,,,,,,,
4634092000.0,81.07,0.7300000190734863,12041169408.0,1846.4470062987107,125.0,0.005629750434309244,516096.0,1000.104700088501,1.6759163501411933e-14,0.0,2.486781120300293,-0.024867812171578407,0.04797564446926117,-0.024867810308933258,-1.862645149230957e-09,0.0,-0.03401985764503479,0.307923823595047,0.4897947582401114,0.4300800561904907,0.3290330767631531,0.39606016874313354,0.43109288811683655,2.2183144092559814,0.9972350597381592,,,,,,,
4634092000.0,84.79,0.9300000071525574,12041169408.0,1797.4957266253937,126.0,0.00651831179857254,520192.0,1002.383425951004,1.5407813913626e-14,0.0,2.4859206676483154,-0.024859199300408363,0.036927781999111176,-0.02485920675098896,7.450580596923828e-09,0.0,-0.03125014901161194,0.2699940502643585,0.4812216857965397,0.4577063024044037,0.2858908176422119,0.42645615339279175,0.3748549818992615,2.2787258625030518,0.9970703125,,,,,,,
4634092000.0,80.82,1.059999942779541,12041169408.0,1811.7982059053681,127.0,0.005904404912143946,524288.0,1004.6441633701324,1.5678430775878383e-14,0.0,2.4559946060180664,-0.024559933692216873,0.04826252907514572,-0.02455994486808777,1.1175870895385742e-08,0.0,-0.04886281117796898,0.30685579776763916,0.5599104867440623,0.4529864192008972,0.325745165348053,0.40412360429763794,0.462555468082428,2.260737419128418,0.9973914623260498,,,,,,,
,,,,,,,,,,,,,,,,,,,,,,,,,,0.012286979705095291,0.06085723266005516,0.04621070250868797,0.012286979705095291,0.06085723266005516,0.04621070250868797,
,,,,,,,,,,,,,,,,,,,,,,,,,,0.005828426219522953,0.04617971181869507,0.04073873162269592,0.005828426219522953,0.04617971181869507,0.04073873162269592,
,,,,,,,,,,,,,,,,,,,,,,,,,,0.00467006815597415,0.04104449972510338,0.037901509553194046,0.00467006815597415,0.04104449972510338,0.037901509553194046,
,,,,,,,,,,,,,,,,,,,,,,,,,,0.004347149282693863,0.0392228364944458,0.036487825214862823,0.004347149282693863,0.0392228364944458,0.036487825214862823,
,,,,,,,,,,,,,,,,,,,,,,,,,,0.004076884128153324,0.03662499785423279,0.034744102507829666,0.004076884128153324,0.03662499785423279,0.034744102507829666,
,,,,,,,,,,,,,,,,,,,,,,,,,,0.0034933974966406822,0.035224419087171555,0.0335613377392292,0.0034933974966406822,0.035224419087171555,0.0335613377392292,
,,,,,,,,,,,,,,,,,,,,,,,,,,,,,,,,0.96
4634360000.0,80.26,1.0299999713897705,11990521856.0,16.97701173658712,128.0,0.007426262833178043,528384.0,1245.911593914032,1.474514954580286e-14,0.0,2.4670963287353516,-0.024670951068401337,0.03126312047243118,-0.024670962244272232,1.1175870895385742e-08,0.0,0.05241280049085617,0.24452759325504303,0.6987949092897415,0.25515371561050415,0.37420520186424255,0.3075665235519409,0.44555023312568665,241.26743054389954,0.9970686435699463,,,,,,,
4634360000.0,81.19,0.9399999976158142,12041169408.0,1808.3551257574254,129.0,0.004918825812637806,532480.0,1248.1766357421875,1.5230872119076366e-14,0.0,2.443325996398926,-0.024433264508843422,0.02076532319188118,-0.024433258920907974,-5.587935447692871e-09,0.0,0.03338748589158058,0.2010616511106491,0.7396188399675856,0.2599692940711975,0.3399215042591095,0.2933567762374878,0.39402562379837036,2.2650418281555176,0.9970698356628418,,,,,,,
4634360000.0,76.5,0.9300000071525574,12041169408.0,1782.8152510940063,130.0,0.008089130744338036,536576.0,1250.474125623703,1.591955733903916e-14,0.0,2.402604103088379,-0.0240260511636734,0.020399264991283417,-0.024026039987802505,-1.1175870895385742e-08,0.0,0.02783963643014431,0.20008312165737152,0.7003496569379408,0.2882574200630188,0.3321290612220764,0.31609708070755005,0.36551323533058167,2.297489881515503,0.9972145557403564,,,,,,,
4634360000.0,80.67,1.309999942779541,12041169408.0,1819.1369351460037,131.0,0.007724718190729618,540672.0,1252.725742816925,1.5156279009609364e-14,0.0,2.4321513175964355,-0.02432151697576046,0.019733503460884094,-0.02432151325047016,-3.725290298461914e-09,0.0,0.020745256915688515,0.19760103523731232,0.7247935607317246,0.356152206659317,0.30300837755203247,0.3768974840641022,0.3766690790653229,2.251617193222046,0.9969604015350342,,,,,,,
4634360000.0,81.21,1.0399999618530273,12041169408.0,1822.0249048732433,132.0,0.006473727524280548,544768.0,1254.9737911224365,1.6387932677552897e-14,0.0,2.380033493041992,-0.02380032278597355,0.02098057046532631,-0.023800333961844444,1.1175870895385742e-08,0.0,0.019381027668714523,0.2039501816034317,0.7776292718246661,0.30798959732055664,0.3699896037578583,0.32737064361572266,0.4324992001056671,2.2480483055114746,0.9970080852508545,,,,,,,
4634360000.0,80.33,0.9599999785423279,12041169408.0,1743.1772238260658,133.0,0.005595742724835873,548864.0,1257.3235235214233,1.5520570939564493e-14,0.0,2.4047980308532715,-0.0240479726344347,0.02881021425127983,-0.024047980085015297,7.450580596923828e-09,0.0,-0.02618027850985527,0.2386397421360016,0.7018004204366853,0.33727484941482544,0.36442264914512634,0.31109458208084106,0.437007874250412,2.3497323989868164,0.9969511032104492,,,,,,,
4634360000.0,79.39,1.1299999952316284,12041169408.0,1800.1349989982875,134.0,0.008660968393087387,552960.0,1259.5989084243774,1.7182436029550274e-14,0.0,2.3812553882598877,-0.02381255105137825,0.02575148083269596,-0.0238125529140234,1.862645149230957e-09,0.0,0.01879325695335865,0.22619077563285828,0.7687535266590406,0.4286152124404907,0.39484795928001404,0.44740843772888184,0.4703674912452698,2.2753849029541016,0.9973094463348389,,,,,,,
4634360000.0,77.66,1.350000023841858,12041169408.0,1828.3620256745276,135.0,0.008801816031336784,557056.0,1261.8391649723053,1.7867651802561113e-14,0.0,2.3741884231567383,-0.02374188043177128,0.023873411118984222,-0.023741884157061577,3.725290298461914e-09,0.0,-0.019533570855855942,0.21766218543052673,0.7497998649366726,0.4261965751647949,0.36159828305244446,0.4066630005836487,0.43515023589134216,2.2402565479278564,0.997215747833252,,,,,,,
4634360000.0,76.2,1.1299999952316284,12041169408.0,1814.7259673207407,136.0,0.008438488468527794,561152.0,1264.0962550640106,2.024422296464934e-14,0.0,2.2959823608398438,-0.022959822788834572,0.01643391326069832,-0.022959822788834572,0.0,0.0,-0.011226484552025795,0.1809690296649933,0.756921215190441,0.395729124546051,0.35674747824668884,0.384502649307251,0.36705464124679565,2.2570900917053223,0.997840404510498,,,,,,,
4634360000.0,78.63,1.2699999809265137,12041169408.0,1725.8902877948992,137.0,0.008196553215384483,565248.0,1266.4695229530334,2.0905152608996502e-14,0.0,2.2419931888580322,-0.02241993136703968,0.028552446514368057,-0.02241993136703968,0.0,0.0,0.006669065449386835,0.23890239000320435,0.7851851075467486,0.47176000475883484,0.4502563178539276,0.47842904925346375,0.5154520869255066,2.373267889022827,0.9972648620605469,,,,,,,
4634360000.0,80.41,1.159999966621399,12041169408.0,1845.1377601296203,138.0,0.006027796305716038,569344.0,1268.6894114017487,2.2379667563576788e-14,0.0,2.268667221069336,-0.022686662152409554,0.02991022914648056,-0.0226866714656353,9.313225746154785e-09,0.0,0.005581705365329981,0.24454835057258606,0.7098372664819242,0.39185452461242676,0.3894500732421875,0.3974362015724182,0.4539875388145447,2.21988844871521,0.9975605010986328,,,,,,,
4634360000.0,76.79,1.0499999523162842,12041169408.0,1787.9664967079518,139.0,0.010405629873275757,573440.0,1270.9802820682526,2.319325287380991e-14,0.0,2.271735668182373,-0.022717338055372238,0.024170473217964172,-0.02271735668182373,1.862645149230957e-08,0.0,-0.008525565266609192,0.21972720324993134,0.7476178594014868,0.5495478510856628,0.38625842332839966,0.5410223007202148,0.43737557530403137,2.2908706665039062,0.9973132610321045,,,,,,,
4634360000.0,78.7,1.2400000095367432,12041169408.0,1764.0604734392386,140.0,0.0074622114188969135,577536.0,1273.302197933197,2.2296400836729902e-14,0.0,2.263292074203491,-0.022632908076047897,0.029175929725170135,-0.022632921114563942,1.3969838619232178e-08,0.0,-0.012617415748536587,0.24126099050045013,0.6942806836324477,0.4906373620033264,0.3944024443626404,0.47801995277404785,0.43634065985679626,2.321915864944458,0.9971699714660645,,,,,,,
4634360000.0,83.31,1.1299999952316284,12041169408.0,1841.526062615793,141.0,0.004383591935038567,581632.0,1275.5264401435852,2.3543667015957226e-14,0.0,2.2200870513916016,-0.022200869396328926,0.039423391222953796,-0.022200869396328926,0.0,0.0,-0.08359809219837189,0.2680964469909668,0.7198870910160734,0.4368338882923126,0.4282921850681305,0.35323578119277954,0.506552517414093,2.2242422103881836,0.9979138374328613,,,,,,,
4634360000.0,76.26,0.8199999928474426,12041169408.0,1848.3638502895649,142.0,0.006717522628605366,585728.0,1277.7424540519714,2.3338969645791963e-14,0.0,2.2207298278808594,-0.022207293659448624,0.03812357783317566,-0.022207297384738922,3.725290298461914e-09,0.0,-0.04822101444005966,0.27191898226737976,0.7105062503429296,0.4468328058719635,0.4318467676639557,0.39861178398132324,0.5053821802139282,2.2160139083862305,0.997488260269165,,,,,,,
4634360000.0,76.65,0.7099999785423279,12041169408.0,1773.6163966819288,143.0,0.004013195168226957,589824.0,1280.0518598556519,2.334070436926794e-14,0.0,2.2082414627075195,-0.022082414478063583,0.034433960914611816,-0.022082414478063583,0.0,0.0,-0.05323067307472229,0.2570030093193054,0.7117708065942623,0.30739545822143555,0.3975442349910736,0.25416478514671326,0.47870638966560364,2.30940580368042,0.9970953464508057,,,,,,,
4634360000.0,77.79,0.5099999904632568,12041169408.0,1857.419098024796,144.0,0.003632061881944537,593920.0,1282.2570703029633,2.3240090407661285e-14,0.0,2.208146572113037,-0.02208147570490837,0.043979447335004807,-0.022081464529037476,-1.1175870895385742e-08,0.0,-0.06538879871368408,0.289315789937973,0.5051282272649722,0.26786696910858154,0.3097422420978546,0.20247815549373627,0.41126886010169983,2.2052104473114014,0.9971210956573486,,,,,,,
4634360000.0,76.93,0.8999999761581421,12041169408.0,1863.131575397106,145.0,0.008838377892971039,598016.0,1284.45551943779,2.288447209508604e-14,0.0,2.2210021018981934,-0.0222100168466568,0.017651811242103577,-0.022210020571947098,3.725290298461914e-09,0.0,0.02569299191236496,0.18615035712718964,0.653501080508726,0.25117605924606323,0.2696463167667389,0.2768690586090088,0.3162371516227722,2.19844913482666,0.9972584247589111,,,,,,,
4634360000.0,77.21,1.1399999856948853,12041169408.0,1804.485660321789,146.0,0.006641089916229248,602112.0,1286.725418329239,2.5099713973908422e-14,0.0,2.170802593231201,-0.021708020940423012,0.027376186102628708,-0.02170802466571331,3.725290298461914e-09,0.0,0.03570960462093353,0.2312796264886856,0.6242366755985969,0.2168499231338501,0.2879808843135834,0.2525595426559448,0.3772942125797272,2.2698988914489746,0.9969234466552734,,,,,,,
4634360000.0,79.97,1.100000023841858,12041169408.0,1769.826736351807,147.0,0.006781863979995251,606208.0,1289.0397691726685,2.4414498200897583e-14,0.0,2.186154842376709,-0.02186153642833233,0.023800469934940338,-0.021861547604203224,1.1175870895385742e-08,0.0,0.03827514499425888,0.2148190438747406,0.6418774463799962,0.1837548166513443,0.26435592770576477,0.22202995419502258,0.35896897315979004,2.3143508434295654,0.9971141815185547,,,,,,,
4634360000.0,84.18,1.1699999570846558,12041169408.0,1811.607916976688,148.0,0.008101439103484154,610304.0,1291.3007440567017,2.4239291129823926e-14,0.0,2.1881282329559326,-0.021881286054849625,0.030698999762535095,-0.021881282329559326,-3.725290298461914e-09,0.0,0.05132110044360161,0.2424427568912506,0.5796507270423996,0.1934826821088791,0.268398255109787,0.244803786277771,0.3739418685436249,2.260974884033203,0.997443437576294,,,,,,,
4634360000.0,90.81,1.2999999523162842,12041169408.0,1841.7558589294322,149.0,0.00772570027038455,614400.0,1293.5247087478638,2.560625322889365e-14,0.0,2.161710262298584,-0.021617086604237556,0.024424027651548386,-0.02161710150539875,1.4435499906539917e-08,0.0,0.06543333828449249,0.21113362908363342,0.5961678783091233,0.18807461857795715,0.23648333549499512,0.25350794196128845,0.3322439193725586,2.2239646911621094,0.997321605682373,,,,,,,
4634360000.0,88.46,1.440000057220459,12041169408.0,1797.6717759091941,150.0,0.010229453444480896,618496.0,1295.8032114505768,2.263987608497331e-14,0.0,2.180114984512329,-0.021801123395562172,0.030284687876701355,-0.02180114947259426,2.60770320892334e-08,0.0,0.08858482539653778,0.22964097559452057,0.6291340925309947,0.21918052434921265,0.2830604016780853,0.30776533484458923,0.37708646059036255,2.2785027027130127,0.9971206188201904,,,,,,,
4634360000.0,85.12,1.5099999904632568,12041169408.0,1805.3991075291497,151.0,0.007749921176582575,622592.0,1298.0719618797302,2.3635607360183997e-14,0.0,2.1809115409851074,-0.021809108555316925,0.018558314070105553,-0.021809114143252373,5.587935447692871e-09,0.0,0.06457669287919998,0.1815338134765625,0.7262770230816058,0.21731087565422058,0.28076961636543274,0.28188756108283997,0.34697791934013367,2.2687504291534424,0.9972515106201172,,,,,,,
4634360000.0,93.95,1.5299999713897705,12041169408.0,1761.5621529078353,152.0,0.008682585321366787,626688.0,1300.3971707820892,2.2266910537638296e-14,0.0,2.2316555976867676,-0.022316548973321915,0.01930907368659973,-0.022316554561257362,5.587935447692871e-09,0.0,0.03215013071894646,0.19389094412326813,0.7139292756957569,0.2754129469394684,0.28655683994293213,0.30756306648254395,0.36251065135002136,2.325208902359009,0.9968588352203369,,,,,,,
4634360000.0,98.6,1.4800000190734863,12041169408.0,1837.22247318763,153.0,0.009221093729138374,630784.0,1302.6266231536865,2.2225277174214852e-14,0.0,2.2345998287200928,-0.02234598994255066,0.024565840139985085,-0.022345997393131256,7.450580596923828e-09,0.0,0.04772065579891205,0.21648524701595306,0.7215243881311817,0.3275739550590515,0.32985571026802063,0.37529459595680237,0.4102368652820587,2.22945237159729,0.9970993995666504,,,,,,,
4634360000.0,100.01,1.690000057220459,12041169408.0,1770.1405700143323,154.0,0.009891089051961899,634880.0,1304.9405636787415,2.2251298026354505e-14,0.0,2.1927411556243896,-0.021927423775196075,0.03176909685134888,-0.02192741073668003,-1.3969838619232178e-08,0.0,0.054548755288124084,0.24612478911876678,0.6678735935913852,0.3655228316783905,0.34179216623306274,0.4200715720653534,0.42707449197769165,2.3139405250549316,0.9970703125,,,,,,,
4634360000.0,90.85,1.7200000286102295,12041169408.0,1786.2443151665982,155.0,0.011489645577967167,638976.0,1307.2336430549622,2.0795865030009963e-14,0.0,2.231372594833374,-0.022313721477985382,0.021274752914905548,-0.02231372520327568,3.259629011154175e-09,0.0,0.018554117530584335,0.20546425879001617,0.7340775092258796,0.45185309648513794,0.3498609662055969,0.4704071879386902,0.39843612909317017,2.293079376220703,0.9972207546234131,,,,,,,
4634360000.0,91.53,1.6200000047683716,12041169408.0,1825.559276669228,156.0,0.008461859077215195,643072.0,1309.4773390293121,2.1260770921571748e-14,0.0,2.237208366394043,-0.022372080013155937,0.03586028516292572,-0.022372083738446236,3.725290298461914e-09,0.0,-0.021381625905632973,0.26698464155197144,0.7197083202177441,0.5414531230926514,0.4131307601928711,0.5200715065002441,0.5042909383773804,2.2436959743499756,0.997450590133667,,,,,,,
4634360000.0,89.46,1.5299999713897705,12041169408.0,1841.4198702935983,157.0,0.00886774156242609,647168.0,1311.7017095088959,2.0421164759198973e-14,0.0,2.2523093223571777,-0.02252308838069439,0.04277442768216133,-0.022523092105984688,3.725290298461914e-09,0.0,-0.03552890196442604,0.29035693407058716,0.7580030877565032,0.6785006523132324,0.5139554738998413,0.6429718136787415,0.590238094329834,2.2243704795837402,0.9972152709960938,,,,,,,
4634360000.0,95.02,1.5700000524520874,12041169408.0,1845.9962351275558,158.0,0.008084221743047237,651264.0,1313.9205656051636,1.892409839943099e-14,0.0,2.270428419113159,-0.02270427905023098,0.045718781650066376,-0.02270428277552128,3.725290298461914e-09,0.0,-0.051506541669368744,0.2980038821697235,0.7758054047071762,0.6779212951660156,0.5750921368598938,0.6264147758483887,0.6293748021125793,2.2188560962677,0.9969425201416016,,,,,,,
4634360000.0,96.21,1.5800000429153442,12041169408.0,1817.3720921031725,159.0,0.009544705972075462,655360.0,1316.1743693351746,1.9081958235744878e-14,0.0,2.3019611835479736,-0.023019619286060333,0.05368746817111969,-0.023019611835479736,-7.450580596923828e-09,0.0,-0.01499620545655489,0.3273777663707733,0.7524986129320486,0.6086148023605347,0.5297736525535583,0.593618631362915,0.6580523252487183,2.2538037300109863,0.9971175193786621,,,,,,,
,,,,,,,,,,,,,,,,,,,,,,,,,,0.005702586844563484,0.044778093695640564,0.03460104763507843,0.005702586844563484,0.044778093695640564,0.03460104763507843,
,,,,,,,,,,,,,,,,,,,,,,,,,,0.0045400261878967285,0.034811265766620636,0.029401658102869987,0.0045400261878967285,0.034811265766620636,0.029401658102869987,
,,,,,,,,,,,,,,,,,,,,,,,,,,0.0035309037193655968,0.029369967058300972,0.02617436833679676,0.0035309037193655968,0.029369967058300972,0.02617436833679676,
,,,,,,,,,,,,,,,,,,,,,,,,,,0.0035546589642763138,0.028132885694503784,0.02511022426187992,0.0035546589642763138,0.028132885694503784,0.02511022426187992,
,,,,,,,,,,,,,,,,,,,,,,,,,,0.0033782008104026318,0.02717786654829979,0.024203483015298843,0.0033782008104026318,0.02717786654829979,0.024203483015298843,
,,,,,,,,,,,,,,,,,,,,,,,,,,0.003356474218890071,0.024755312129855156,0.022929776459932327,0.003356474218890071,0.024755312129855156,0.022929776459932327,
,,,,,,,,,,,,,,,,,,,,,,,,,,,,,,,,1.16
4634360000.0,105.13,1.6399999856948853,11990521856.0,16.97861154811054,160.0,0.007034932728856802,659456.0,1557.4190664291382,1.644517855226013e-14,0.0,2.3344836235046387,-0.023344842717051506,0.03126762807369232,-0.02334483526647091,-7.450580596923828e-09,0.0,0.009419235400855541,0.24992355704307556,0.715064980535117,0.2661678194999695,0.3690096139907837,0.2755870819091797,0.4682030975818634,241.24469709396362,0.9969477653503418,,,,,,,
4634360000.0,92.76,1.5,12041169408.0,1835.7512809484858,161.0,0.010100864805281162,663552.0,1559.6503055095673,1.5664552988070568e-14,0.0,2.36193585395813,-0.02361934632062912,0.02321968786418438,-0.023619357496500015,1.1641532182693481e-08,0.0,0.061088625341653824,0.20668329298496246,0.7236003604863974,0.33450114727020264,0.32121047377586365,0.39558976888656616,0.39313045144081116,2.231239080429077,0.9970910549163818,,,,,,,
4634360000.0,92.46,1.440000057220459,12041169408.0,1814.9893893095254,162.0,0.007054046727716923,667648.0,1561.907068014145,1.510423730533006e-14,0.0,2.379185914993286,-0.023791858926415443,0.04203421249985695,-0.023791858926415443,0.0,0.0,-0.0034691202454268932,0.28996020555496216,0.7077939736885557,0.3078461289405823,0.4171426594257355,0.304377019405365,0.5364062786102295,2.2567625045776367,0.9973950386047363,,,,,,,
4634360000.0,86.21,1.0099999904632568,12041169408.0,1859.0042915408385,163.0,0.005865057464689016,671744.0,1564.110398054123,1.526730131207188e-14,0.0,2.3625547885894775,-0.023625550791621208,0.04052377864718437,-0.02362554706633091,-3.725290298461914e-09,0.0,-0.008046502247452736,0.28460952639579773,0.6211200919987706,0.31274229288101196,0.3427439332008362,0.3046957850456238,0.4623796045780182,2.2033300399780273,0.9969754219055176,,,,,,,
4634360000.0,81.46,0.699999988079071,12041169408.0,1848.0184889311133,164.0,0.0034701786935329437,675840.0,1566.326826095581,1.5230872119076366e-14,0.0,2.3416528701782227,-0.023416530340909958,0.06723032891750336,-0.02341652847826481,-1.862645149230957e-09,0.0,-0.03740138188004494,0.3648209273815155,0.5481584031824525,0.2737185060977936,0.35806456208229065,0.23631711304187775,0.5427334308624268,2.21642804145813,0.9972515106201172,,,,,,,
4634360000.0,84.13,0.800000011920929,12041169408.0,1862.598709701481,165.0,0.0070852781645953655,679936.0,1568.5259041786194,1.5834555888716295e-14,0.0,2.3514389991760254,-0.023514382541179657,0.02304239198565483,-0.023514389991760254,7.450580596923828e-09,0.0,0.016591530293226242,0.21405768394470215,0.8026400563613907,0.28996896743774414,0.3870619833469391,0.3065605163574219,0.48183828592300415,2.19907808303833,0.997368335723877,,,,,,,
4634360000.0,82.01,1.1100000143051147,12041169408.0,1803.8373081754562,166.0,0.008706196211278439,684032.0,1570.796618938446,1.5322812463303137e-14,0.0,2.330699920654297,-0.023306995630264282,0.01848333701491356,-0.02330699935555458,3.725290298461914e-09,0.0,0.03652208298444748,0.18878960609436035,0.7799578559513894,0.34486719965934753,0.3290032744407654,0.381389319896698,0.40246227383613586,2.27071475982666,0.996849775314331,,,,,,,
4634360000.0,89.18,1.2799999713897705,12041169408.0,1822.7212081062694,167.0,0.008313913829624653,688128.0,1573.0438084602356,1.7172027688694413e-14,0.0,2.288322925567627,-0.02288324199616909,0.03897853195667267,-0.022883228957653046,-1.30385160446167e-08,0.0,0.04730052500963211,0.2752057611942291,0.6626984407837964,0.2768520712852478,0.38253992795944214,0.3241526186466217,0.47385817766189575,2.247189521789551,0.9976036548614502,,,,,,,
4634360000.0,90.23,1.3200000524520874,12041169408.0,1780.0536511012326,168.0,0.007924127392470837,692224.0,1575.3448626995087,1.893971091071478e-14,0.0,2.2493855953216553,-0.02249385602772236,0.0351954847574234,-0.02249385602772236,0.0,0.0,0.02994370460510254,0.26365000009536743,0.7656954039573052,0.32029080390930176,0.44254863262176514,0.3502345383167267,0.5446748733520508,2.3010542392730713,0.9972050189971924,,,,,,,
4634360000.0,82.86,1.3799999952316284,12041169408.0,1768.165874571039,169.0,0.009816698729991913,696320.0,1577.6613874435425,1.7968265764167768e-14,0.0,2.281043291091919,-0.0228104367852211,0.027905527502298355,-0.0228104330599308,-3.725290298461914e-09,0.0,0.04086552560329437,0.23271071910858154,0.7676413346044599,0.372050404548645,0.38909682631492615,0.4129159450531006,0.48276636004447937,2.3165247440338135,0.996955394744873,,,,,,,
4634360000.0,89.14,1.5299999713897705,12041169408.0,1802.9498482278275,170.0,0.008477365598082542,700416.0,1579.933219909668,1.758142242902494e-14,0.0,2.2482433319091797,-0.022482451051473618,0.04226800054311752,-0.022482432425022125,-1.955777406692505e-08,0.0,0.043762389570474625,0.28747352957725525,0.8587505827190727,0.35449278354644775,0.6083568930625916,0.3982551693916321,0.764899730682373,2.2718324661254883,0.9972367286682129,,,,,,,
4634360000.0,95.31,1.309999942779541,12041169408.0,1794.8958732020737,171.0,0.006062934175133705,704512.0,1582.21524643898,1.6863246909970542e-14,0.0,2.3077664375305176,-0.02307766117155552,0.04948676750063896,-0.02307766303420067,1.862645149230957e-09,0.0,-0.03157971426844597,0.3130497932434082,0.7257803011761006,0.38468873500823975,0.4663780629634857,0.35310906171798706,0.5978112816810608,2.282026529312134,0.9969840049743652,,,,,,,
4634360000.0,94.46,1.399999976158142,12041169408.0,1795.8598930106755,172.0,0.009983088821172714,708608.0,1584.4960479736328,1.776009894705055e-14,0.0,2.310136079788208,-0.023101365193724632,0.04284320026636124,-0.023101359605789185,-5.587935447692871e-09,0.0,-0.0011539086699485779,0.2927558422088623,0.7466685115821814,0.5081913471221924,0.5080091953277588,0.5070375204086304,0.5816490650177002,2.28080153465271,0.9974403381347656,,,,,,,
4634360000.0,95.35,1.6699999570846558,12041169408.0,1855.0773176846255,173.0,0.01161318551748991,712704.0,1586.7040421962738,1.6863246909970542e-14,0.0,2.3080968856811523,-0.023080972954630852,0.03362063318490982,-0.023080969229340553,-3.725290298461914e-09,0.0,0.04396120831370354,0.2555868327617645,0.8102462814630288,0.5197396278381348,0.5568272471427917,0.5637009143829346,0.586736798286438,2.207994222640991,0.9973833560943604,,,,,,,
4634360000.0,102.2,1.8200000524520874,12041169408.0,1826.7783268433295,174.0,0.00756955798715353,716800.0,1588.946240901947,1.674008154317619e-14,0.0,2.3252005577087402,-0.023252006620168686,0.044905081391334534,-0.023252004757523537,-1.862645149230957e-09,0.0,-0.003554433584213257,0.29969894886016846,0.7693779898989827,0.5800628662109375,0.5442885160446167,0.5765084624290466,0.6240721940994263,2.2421987056732178,0.9970495700836182,,,,,,,
4634360000.0,108.5,1.9199999570846558,12041169408.0,1761.4404205670958,175.0,0.010149234905838966,720896.0,1591.2716104984283,1.597333376679444e-14,0.0,2.3566722869873047,-0.02356674149632454,0.04182764142751694,-0.023566722869873047,-1.862645149230957e-08,0.0,-0.0486181303858757,0.28515154123306274,0.7778253565868469,0.6990520358085632,0.5978522896766663,0.6504338979721069,0.6049625873565674,2.3253695964813232,0.9970464706420898,,,,,,,
4634360000.0,101.47,1.850000023841858,12041169408.0,1800.6178098807716,176.0,0.011234317906200886,724992.0,1593.5463852882385,1.7544993236029427e-14,0.0,2.314246654510498,-0.023142466321587563,0.04819537699222565,-0.023142466321587563,0.0,0.0,-0.015090998262166977,0.3101394772529602,0.8759329044215046,0.6325626373291016,0.7659944891929626,0.6174716949462891,0.8804988265037537,2.2747747898101807,0.997112512588501,,,,,,,
4634360000.0,92.11,1.899999976158142,12041169408.0,1744.799425653967,177.0,0.013282859697937965,729088.0,1595.893933057785,1.7425297316187027e-14,0.0,2.3329122066497803,-0.023329121991991997,0.16795624792575836,-0.023329121991991997,0.0,0.0,0.013966143131256104,0.5794820785522461,0.349565086686339,0.6865249872207642,0.5680644512176514,0.700491189956665,0.7185186743736267,2.347547769546509,0.9967067241668701,,,,,,,
4634360000.0,92.0,1.8799999952316284,12041169408.0,1831.2362445983183,178.0,0.008814910426735878,733184.0,1598.1306734085083,1.7718465583627108e-14,0.0,2.297677993774414,-0.022976776584982872,0.037639811635017395,-0.02297678031027317,3.725290298461914e-09,0.0,-0.034833163022994995,0.27218443155288696,0.8195201330873157,0.5868386030197144,0.5967322587966919,0.5520054697990417,0.6406913995742798,2.2367403507232666,0.9971394538879395,,,,,,,
4634360000.0,93.54,1.5,12041169408.0,1758.2728168338608,179.0,0.00909675657749176,737280.0,1600.460232257843,1.684243022825882e-14,0.0,2.335416316986084,-0.023354174569249153,0.041793182492256165,-0.023354163393378258,-1.1175870895385742e-08,0.0,-0.0208884309977293,0.28839269280433655,0.8067515624567122,0.687566876411438,0.6065518856048584,0.6666784286499023,0.6560338139533997,2.329558849334717,0.9970541000366211,,,,,,,
4634360000.0,99.35,1.6399999856948853,12041169408.0,1848.7539039081857,180.0,0.011689452454447746,741376.0,1602.6757786273956,1.7583157152500917e-14,0.0,2.3269238471984863,-0.023269252851605415,0.030973603948950768,-0.02326923795044422,-1.4901161193847656e-08,0.0,0.023662103340029716,0.24779488146305084,0.77449654961281,0.6744547486305237,0.50246661901474,0.6981168389320374,0.5218139886856079,2.2155463695526123,0.9969596862792969,,,,,,,
4634360000.0,104.11,1.850000023841858,12041169408.0,1782.5150320699515,181.0,0.008972467854619026,745472.0,1604.973655462265,1.9800133754799276e-14,0.0,2.267685890197754,-0.02267685905098915,0.044504180550575256,-0.02267685905098915,0.0,0.0,-0.011984296143054962,0.298138290643692,0.8740469470884888,0.4545484781265259,0.7564098834991455,0.4425641894340515,0.8400660157203674,2.2978768348693848,0.9970865249633789,,,,,,,
4634360000.0,103.48,1.8200000524520874,12041169408.0,1807.8135584944735,182.0,0.010338726453483105,749568.0,1607.2393758296967,1.8049797767538678e-14,0.0,2.301835536956787,-0.023018356412649155,0.04147569090127945,-0.023018354550004005,-2.7939677238464355e-09,0.0,0.002801459049805999,0.2880343496799469,0.796755726947195,0.5959632396697998,0.5479848980903625,0.5987646579742432,0.6389033198356628,2.2657203674316406,0.9971733093261719,,,,,,,
4634360000.0,97.93,2.0299999713897705,12041169408.0,1789.2511826800833,183.0,0.014428029768168926,753664.0,1609.5286016464233,1.879225941525675e-14,0.0,2.271864652633667,-0.022718649357557297,0.036104924976825714,-0.022718645632267,-3.725290298461914e-09,0.0,0.08206232637166977,0.25591328740119934,0.8055818604969074,0.6339045763015747,0.5621219873428345,0.7159668803215027,0.5803960561752319,2.2892258167266846,0.9969933032989502,,,,,,,
4634360000.0,104.12,2.4200000762939453,12041169408.0,1838.557496614749,184.0,0.012936229817569256,757760.0,1611.7564351558685,1.849909114781667e-14,0.0,2.2986557483673096,-0.02298653870820999,0.029961861670017242,-0.022986557334661484,1.862645149230957e-08,0.0,0.055271562188863754,0.23850086331367493,0.8392473019814999,0.5700060129165649,0.5546173453330994,0.6252776384353638,0.5948546528816223,2.2278335094451904,0.997626543045044,,,,,,,
4634360000.0,112.19,2.5399999618530273,12041169408.0,1832.2303269702838,185.0,0.009535648860037327,761856.0,1613.9919619560242,2.0568616254657002e-14,0.0,2.241503953933716,-0.022415023297071457,0.05853721499443054,-0.02241503819823265,1.4901161193847656e-08,0.0,0.01697741448879242,0.3417816758155823,0.8168250589965297,0.6294206380844116,0.7062315940856934,0.6463980674743652,0.7985751032829285,2.2355268001556396,0.9973163604736328,,,,,,,
4634360000.0,121.4,2.309999942779541,12041169408.0,1815.1330190952813,186.0,0.008990470319986343,765952.0,1616.248545885086,2.024422296464934e-14,0.0,2.243274450302124,-0.02243274822831154,0.060917481780052185,-0.02243274450302124,-4.6566128730773926e-09,0.0,0.007816225290298462,0.34900373220443726,0.8417992874575346,0.6392430067062378,0.7669309377670288,0.6470591425895691,0.8774570226669312,2.2565839290618896,0.9970581531524658,,,,,,,
4634360000.0,123.73,1.9900000095367432,12041169408.0,1829.6452265332102,187.0,0.007910946384072304,770048.0,1618.4872312545776,2.0245957688125316e-14,0.0,2.2467756271362305,-0.02246776595711708,0.05318941920995712,-0.022467756643891335,-1.0244548320770264e-08,0.0,-0.007486398331820965,0.3261115849018097,0.6602283316225201,0.6165028810501099,0.5032573938369751,0.609016478061676,0.5594646334648132,2.238685369491577,0.9970886707305908,,,,,,,
4634360000.0,121.04,1.9299999475479126,12041169408.0,1769.2342024616642,188.0,0.01035851426422596,774144.0,1620.8023571968079,2.2962534651504996e-14,0.0,2.2326955795288086,-0.022326966747641563,0.1768898069858551,-0.022326955571770668,-1.1175870895385742e-08,0.0,0.045464880764484406,0.5931259393692017,0.4777150357607205,0.7333803176879883,0.5460978150367737,0.7788451910018921,0.8207165598869324,2.3151259422302246,0.9968283176422119,,,,,,,
4634360000.0,123.37,2.25,12041169408.0,1817.0824165264798,189.0,0.01035996526479721,778240.0,1623.0565202236176,2.003085197710419e-14,0.0,2.2513692378997803,-0.02251368947327137,0.1334836483001709,-0.02251369133591652,1.862645149230957e-09,0.0,-0.015910305082798004,0.5165067911148071,0.6378420018155477,0.8485250473022461,0.6883452534675598,0.8326147794723511,0.8582761287689209,2.2541630268096924,0.9969782829284668,,,,,,,
4634360000.0,127.98,2.4600000381469727,12041169408.0,1810.8294098221695,190.0,0.01036471500992775,782336.0,1625.3184671401978,1.853205089386023e-14,0.0,2.2906415462493896,-0.02290642261505127,0.15751422941684723,-0.022906415164470673,-7.450580596923828e-09,0.0,-0.0018860427662730217,0.5613393187522888,0.5093450016589456,0.8664028644561768,0.5790682435035706,0.8645168542861938,0.8013777732849121,2.2619469165802,0.9975440502166748,,,,,,,
4634360000.0,132.4,2.6700000762939453,12041169408.0,1799.7131524520546,191.0,0.011874068528413773,786432.0,1627.5943853855133,1.8889403929911452e-14,0.0,2.3324384689331055,-0.023324381560087204,0.16291376948356628,-0.023324383422732353,1.862645149230957e-09,0.0,0.01966213434934616,0.5705439448356628,0.4657859592755266,0.8517805337905884,0.5272518396377563,0.8714426755905151,0.780605137348175,2.2759182453155518,0.9971177577972412,,,,,,,
,,,,,,,,,,,,,,,,,,,,,,,,,,0.018574969843029976,0.08955012261867523,0.0821809321641922,0.018574969843029976,0.08955012261867523,0.0821809321641922,
,,,,,,,,,,,,,,,,,,,,,,,,,,0.009956054389476776,0.0656636655330658,0.06038728356361389,0.009956054389476776,0.0656636655330658,0.06038728356361389,
,,,,,,,,,,,,,,,,,,,,,,,,,,0.009316272102296352,0.0560881532728672,0.05152577906847,0.009316272102296352,0.0560881532728672,0.05152577906847,
,,,,,,,,,,,,,,,,,,,,,,,,,,0.006929589901119471,0.04887276887893677,0.046633072197437286,0.006929589901119471,0.04887276887893677,0.046633072197437286,
,,,,,,,,,,,,,,,,,,,,,,,,,,0.005874008405953646,0.04599839821457863,0.04476174712181091,0.005874008405953646,0.04599839821457863,0.04476174712181091,
,,,,,,,,,,,,,,,,,,,,,,,,,,0.006447735242545605,0.04259286820888519,0.04319552704691887,0.006447735242545605,0.04259286820888519,0.04319552704691887,
,,,,,,,,,,,,,,,,,,,,,,,,,,,,,,,,1.98
4634360000.0,130.93,2.619999885559082,11990521856.0,16.981943142265894,192.0,0.012834087014198303,790528.0,1868.7917540073395,1.7165088794790506e-14,0.0,2.3282177448272705,-0.023282179608941078,0.13241827487945557,-0.02328217774629593,-1.862645149230957e-09,0.0,0.11019979417324066,0.5027467012405396,0.6304780995174541,0.58614182472229,0.6331073045730591,0.6963416934013367,0.8270450234413147,241.19736862182617,0.9967293739318848,,,,,,,
4634360000.0,121.55,2.6500000953674316,12041169408.0,1796.4750949456866,193.0,0.0112199317663908,794624.0,1871.071774482727,1.545638617095335e-14,0.0,2.342855930328369,-0.02342856675386429,0.04171806573867798,-0.02342855930328369,-7.450580596923828e-09,0.0,0.0550561398267746,0.2835922837257385,0.7124002607344413,0.5408396124839783,0.44834083318710327,0.5958957672119141,0.5288106203079224,2.2800204753875732,0.9979066848754883,,,,,,,
4634360000.0,123.38,2.630000114440918,12041169408.0,1828.6527786633128,194.0,0.010383188724517822,798720.0,1873.3116748332977,1.5404344466674047e-14,0.0,2.35107421875,-0.02351074106991291,0.11047254502773285,-0.02351074106991291,0.0,0.0,0.06360301375389099,0.4657818377017975,0.7613696474884274,0.5623229742050171,0.6776272654533386,0.6259260177612305,0.9534978270530701,2.2399003505706787,0.9969527721405029,,,,,,,
4634360000.0,121.35,2.569999933242798,12041169408.0,1835.2592503966455,195.0,0.012601048685610294,802816.0,1875.5435121059418,1.513719705137362e-14,0.0,2.3377227783203125,-0.023377234116196632,0.05573562532663345,-0.023377226665616035,-7.450580596923828e-09,0.0,0.08504502475261688,0.3228994309902191,0.8133275901118792,0.6955620646476746,0.6400071382522583,0.7806071043014526,0.7473554611206055,2.231837272644043,0.9970731735229492,,,,,,,
4634360000.0,122.49,2.609999895095825,12041169408.0,1806.8100624311267,196.0,0.013287185691297054,806912.0,1877.810490846634,1.4590759156440924e-14,0.0,2.33626651763916,-0.023362645879387856,0.09225643426179886,-0.023362664505839348,1.862645149230957e-08,0.0,0.09378539770841599,0.41923749446868896,0.8083221796426175,0.6744945049285889,0.9059233665466309,0.7682799100875854,0.9575780630111694,2.2669787406921387,0.9971523284912109,,,,,,,
4634360000.0,118.48,2.450000047683716,12041169408.0,1852.486716447684,197.0,0.010010125115513802,811008.0,1880.0215728282928,1.597853793722237e-14,0.0,2.3530256748199463,-0.0235302671790123,0.05463626980781555,-0.023530256003141403,-1.1175870895385742e-08,0.0,0.0056603290140628815,0.33055585622787476,0.7500007632287684,0.8498860597610474,0.6236249804496765,0.8555463552474976,0.6611126661300659,2.2110819816589355,0.9972290992736816,,,,,,,
4634360000.0,120.02,2.5199999809265137,12041169408.0,1875.406679686178,198.0,0.013582898303866386,815104.0,1882.2056324481964,1.5251688800788088e-14,0.0,2.356971502304077,-0.023569725453853607,0.07730104774236679,-0.023569714277982712,-1.1175870895385742e-08,0.0,0.006100311875343323,0.39319542050361633,0.712941261290781,1.061021327972412,0.6864474415779114,1.0671217441558838,0.7338767051696777,2.1840596199035645,0.9967412948608398,,,,,,,
4634360000.0,118.65,2.4700000286102295,12041169408.0,1826.176362996453,199.0,0.014135139994323254,819200.0,1884.4485702514648,1.538179306148635e-14,0.0,2.3634145259857178,-0.02363414317369461,0.06362469494342804,-0.02363414503633976,1.862645149230957e-09,0.0,0.026740191504359245,0.3557601273059845,0.8142772976808385,1.2436299324035645,0.7408265471458435,1.2703700065612793,0.8255143165588379,2.2429378032684326,0.9969651699066162,,,,,,,
4634360000.0,122.94,3.3399999141693115,12041169408.0,1828.3824571007976,200.0,0.016717681661248207,823296.0,1886.688801765442,1.4616780008580577e-14,0.0,2.3560867309570312,-0.023560866713523865,0.22337430715560913,-0.023560866713523865,0.0,0.0,0.035763055086135864,0.6675165891647339,0.7800587942348689,1.4515762329101562,1.2983551025390625,1.4873392581939697,1.4233404397964478,2.240231513977051,0.9970967769622803,,,,,,,
4634360000.0,117.63,3.2100000381469727,12041169408.0,1837.014431472852,201.0,0.012356730177998543,827392.0,1888.9185066223145,1.438606178627566e-14,0.0,2.353991985321045,-0.02353990450501442,0.14552439749240875,-0.023539919406175613,1.4901161193847656e-08,0.0,-0.043005745857954025,0.5378382205963135,0.8095249068805794,1.368255615234375,1.031967282295227,1.3252499103546143,1.2323458194732666,2.2297048568725586,0.9969985485076904,,,,,,,
4634360000.0,121.41,3.2699999809265137,12041169408.0,1849.4210163647017,202.0,0.012745278887450695,831488.0,1891.13325381279,1.5286383270307624e-14,0.0,2.3838093280792236,-0.023838097229599953,0.10069814324378967,-0.023838093504309654,-3.725290298461914e-09,0.0,-0.07386594265699387,0.44270527362823486,0.7144472273570788,1.3023360967636108,0.8259660005569458,1.2284700870513916,0.8284598588943481,2.214747190475464,0.9986250400543213,,,,,,,
4634360000.0,128.13,2.740000009536743,12041169408.0,1817.688399494133,203.0,0.009759246371686459,835584.0,1893.3866653442383,1.462545362596046e-14,0.0,2.3766353130340576,-0.02376634068787098,0.15247507393360138,-0.023766351863741875,1.1175870895385742e-08,0.0,-0.08488177508115768,0.545727014541626,0.6287717619696651,1.3065335750579834,0.8273991942405701,1.2216517925262451,0.8956842422485352,2.2534115314483643,0.9967350959777832,,,,,,,
4634360000.0,129.4,2.7200000286102295,12041169408.0,1801.1288261436155,204.0,0.013888061977922916,839680.0,1895.6607947349548,1.5964660149414556e-14,0.0,2.3427348136901855,-0.023427339270710945,0.0949094295501709,-0.023427346721291542,7.450580596923828e-09,0.0,-0.013891699723899364,0.4355137348175049,0.7868758601575714,1.3503199815750122,0.802043080329895,1.3364282846450806,0.9433773756027222,2.2741293907165527,0.9972281455993652,,,,,,,
4634360000.0,134.42,2.859999895095825,12041169408.0,1861.9474844442748,205.0,0.014940815977752209,843776.0,1897.8606419563293,1.617976586043568e-14,0.0,2.338129997253418,-0.023381315171718597,0.181143656373024,-0.023381300270557404,-1.4901161193847656e-08,0.0,0.045992687344551086,0.6002165675163269,0.8030027395566302,1.1301031112670898,1.1961199045181274,1.1760958433151245,1.352315068244934,2.1998472213745117,0.9970316886901855,,,,,,,
4634360000.0,131.9,3.069999933242798,12041169408.0,1798.3384800260437,206.0,0.0116720674559474,847872.0,1900.1382999420166,1.5508427875232655e-14,0.0,2.357680320739746,-0.023576803505420685,0.08398057520389557,-0.023576803505420685,-9.313225746154785e-10,0.0,-0.025255776941776276,0.40910160541534424,0.7227344814570502,0.9734283685684204,0.6800416111946106,0.9481725692749023,0.7769323587417603,2.277657985687256,0.996964693069458,,,,,,,
4634360000.0,139.09,3.2100000381469727,12041169408.0,1857.02698568284,207.0,0.011396484449505806,851968.0,1902.343976020813,1.5648940476786777e-14,0.0,2.3702878952026367,-0.02370288409292698,0.09831627458333969,-0.02370287850499153,-5.587935447692871e-09,0.0,0.030383305624127388,0.4424445629119873,0.7826771995595126,1.264927625656128,0.837878942489624,1.2953108549118042,0.9490873217582703,2.2056760787963867,0.9977693557739258,,,,,,,
4634360000.0,144.15,3.2699999809265137,12041169408.0,1769.9746127249575,208.0,0.015203580260276794,856064.0,1904.658133506775,1.5371384720630488e-14,0.0,2.358369827270508,-0.02358368970453739,0.1407088339328766,-0.02358369715511799,7.450580596923828e-09,0.0,0.05807125195860863,0.5273644328117371,0.781452170091753,1.0973907709121704,0.8875511288642883,1.1554619073867798,1.1280739307403564,2.314157485961914,0.997126579284668,,,,,,,
4634360000.0,144.8,3.740000009536743,12041169408.0,1774.3861366300123,209.0,0.015579604543745518,860160.0,1906.966537475586,1.5936904573798927e-14,0.0,2.3356435298919678,-0.02335643768310547,0.1983260214328766,-0.02335643395781517,-2.7939677238464355e-09,0.0,0.17846913635730743,0.6040611863136292,0.8393231994030462,1.0894718170166016,1.2313083410263062,1.2679409980773926,1.5069689750671387,2.308403968811035,0.9968650341033936,,,,,,,
4634360000.0,159.13,4.25,12041169408.0,1847.5860248733431,210.0,0.017225980758666992,864256.0,1909.1834843158722,1.609823385706477e-14,0.0,2.3398170471191406,-0.02339816279709339,0.1740519404411316,-0.02339817024767399,7.450580596923828e-09,0.0,0.11644089221954346,0.5784696340560913,0.8113606460048985,1.2918672561645508,1.115536093711853,1.4083080291748047,1.3318778276443481,2.216946840286255,0.9971938133239746,,,,,,,
4634360000.0,162.86,4.760000228881836,12041169408.0,1808.2972619139593,211.0,0.016814962029457092,868352.0,1911.4485986232758,1.5569143196891844e-14,0.0,2.356472969055176,-0.023564748466014862,0.26321840286254883,-0.02356472983956337,-1.862645149230957e-08,0.0,0.038340698927640915,0.7246344089508057,0.808705302806338,1.324190378189087,1.4402046203613281,1.3625311851501465,1.6567901372909546,2.2651143074035645,0.9973185062408447,,,,,,,
4634360000.0,161.09,4.550000190734863,12041169408.0,1819.6296087131054,212.0,0.011247856542468071,872448.0,1913.699606180191,1.457688136863311e-14,0.0,2.361379623413086,-0.02361379563808441,0.20403924584388733,-0.02361379563808441,0.0,0.0,-0.026644792407751083,0.6383322477340698,0.6540186301458437,1.5596272945404053,1.0601696968078613,1.5329824686050415,1.0852264165878296,2.251007556915283,0.996593713760376,,,,,,,
4634360000.0,160.21,4.059999942779541,12041169408.0,1808.4800024590463,213.0,0.01494703907519579,876544.0,1915.9644916057587,1.6436504934880247e-14,0.0,2.336655616760254,-0.023366551846265793,0.44430869817733765,-0.02336655557155609,3.725290298461914e-09,0.0,-0.03301616013050079,0.9422017335891724,0.5453352877296296,2.0316896438598633,1.4470158815383911,1.998673677444458,1.3973278999328613,2.264885425567627,0.9996776580810547,,,,,,,
4634360000.0,149.39,3.5199999809265137,12041169408.0,1814.310667478149,214.0,0.011655621230602264,880640.0,1918.222098350525,1.538179306148635e-14,0.0,2.3524110317230225,-0.023524103686213493,0.1488337516784668,-0.02352410927414894,5.587935447692871e-09,0.0,-0.04321984574198723,0.5439409613609314,0.7213018573060154,1.7716443538665771,0.9267735481262207,1.7284244298934937,1.030349850654602,2.2576067447662354,0.9972043037414551,,,,,,,
4634360000.0,154.61,3.5999999046325684,12041169408.0,1799.7797069626233,215.0,0.013134364038705826,884736.0,1920.497932434082,1.4847498230885492e-14,0.0,2.3952078819274902,-0.023952076211571693,0.2615945339202881,-0.023952078074216843,1.862645149230957e-09,0.0,-0.1313585788011551,0.7113772034645081,0.7332818932668764,1.922011137008667,1.2265534400939941,1.7906525135040283,1.3774431943893433,2.275834083557129,0.9966669082641602,,,,,,,
4634360000.0,141.15,3.2899999618530273,12041169408.0,1827.3079946822593,216.0,0.01617119461297989,888832.0,1922.7394812107086,1.4136261605735001e-14,0.0,2.3822073936462402,-0.02382207289338112,0.1551106870174408,-0.02382207289338112,0.0,0.0,-0.11122984439134598,0.5458223819732666,0.6382890500564602,1.715726375579834,0.8308590054512024,1.6044964790344238,0.9075499176979065,2.241548776626587,0.9971277713775635,,,,,,,
4634360000.0,139.69,3.559999942779541,12041169408.0,1818.1539272688442,217.0,0.014936039224267006,892928.0,1924.9923157691956,1.4568207751253226e-14,0.0,2.402359962463379,-0.024023599922657013,0.14077472686767578,-0.024023599922657013,0.0,0.0,-0.014135832898318768,0.5304887294769287,0.6733967770274176,1.6559730768203735,0.8516177535057068,1.641837239265442,0.9282520413398743,2.2528345584869385,0.9975268840789795,,,,,,,
4634360000.0,132.6,3.2100000381469727,12041169408.0,1796.2515754176814,218.0,0.0071315038949251175,897024.0,1927.2726199626923,1.3825746103535153e-14,0.0,2.389317035675049,-0.023893145844340324,0.08846035599708557,-0.023893170058727264,2.421438694000244e-08,0.0,-0.09539572894573212,0.40970882773399353,0.7391855922375943,1.1595454216003418,0.7482136487960815,1.0641496181488037,0.802249550819397,2.280304193496704,0.997079610824585,,,,,,,
4634360000.0,142.18,3.259999990463257,12041169408.0,1745.4505353026664,219.0,0.009741690009832382,901120.0,1929.6192920207977,1.3770234952303895e-14,0.0,2.393660306930542,-0.023936599493026733,0.09193135797977448,-0.023936603218317032,3.725290298461914e-09,0.0,0.03541770577430725,0.42737913131713867,0.6441234376269842,1.0072500705718994,0.6061950922012329,1.0426677465438843,0.7164131999015808,2.3466720581054688,0.9972777366638184,,,,,,,
4634360000.0,153.07,3.450000047683716,12041169408.0,1830.2342711313502,220.0,0.01917579025030136,905216.0,1931.8572568893433,1.475555788665872e-14,0.0,2.381561517715454,-0.023815609514713287,0.1684081256389618,-0.023815615102648735,4.6566128730773926e-09,0.0,0.10241884738206863,0.5713197588920593,0.7054203091477271,1.122199296951294,0.7344698905944824,1.2246181964874268,1.0526350736618042,2.2379648685455322,0.9967496395111084,,,,,,,
4634360000.0,143.43,3.2200000286102295,12041169408.0,1849.9933811083224,221.0,0.01165844313800335,909312.0,1934.0713188648224,1.490821355254468e-14,0.0,2.3787670135498047,-0.023787662386894226,0.07072557508945465,-0.023787669837474823,7.450580596923828e-09,0.0,0.02216542884707451,0.37549203634262085,0.7758774555103354,0.8541991114616394,0.645325779914856,0.876364529132843,0.7931548357009888,2.214061975479126,0.9971585273742676,,,,,,,
4634360000.0,140.35,3.3299999237060547,12041169408.0,1848.7582807622323,222.0,0.01207628846168518,913408.0,1936.2868599891663,1.511984981661385e-14,0.0,2.380131721496582,-0.023801319301128387,0.06129615381360054,-0.023801317438483238,-2.7939677238464355e-09,0.0,0.04986531659960747,0.3466050922870636,0.7738305965332595,0.8271623253822327,0.6284815669059753,0.8770276308059692,0.7288162112236023,2.215541124343872,0.9972186088562012,,,,,,,
4634360000.0,131.65,3.240000009536743,12041169408.0,1788.1659963595243,223.0,0.013419393450021744,917504.0,1938.5774750709534,1.4804130143986072e-14,0.0,2.3860373497009277,-0.02386036515235901,0.08550232648849487,-0.023860372602939606,7.450580596923828e-09,0.0,0.05565175786614418,0.40981525182724,0.7201541790976106,0.8308594226837158,0.6362962126731873,0.8865111470222473,0.7746913433074951,2.2906150817871094,0.9969115257263184,,,,,,,
,,,,,,,,,,,,,,,,,,,,,,,,,,0.047306083142757416,0.26874208450317383,0.2500113546848297,0.047306083142757416,0.26874208450317383,0.2500113546848297,
,,,,,,,,,,,,,,,,,,,,,,,,,,0.02849929966032505,0.21177494525909424,0.19846905767917633,0.02849929966032505,0.21177494525909424,0.19846905767917633,
,,,,,,,,,,,,,,,,,,,,,,,,,,0.01854640245437622,0.17234539985656738,0.17385143041610718,0.01854640245437622,0.17234539985656738,0.17385143041610718,
,,,,,,,,,,,,,,,,,,,,,,,,,,0.013496309518814087,0.15114131569862366,0.14699052274227142,0.013496309518814087,0.15114131569862366,0.14699052274227142,
,,,,,,,,,,,,,,,,,,,,,,,,,,0.019500289112329483,0.16093333065509796,0.15726424753665924,0.019500289112329483,0.16093333065509796,0.15726424753665924,
,,,,,,,,,,,,,,,,,,,,,,,,,,0.013051657006144524,0.13613341748714447,0.1388225257396698,0.013051657006144524,0.13613341748714447,0.1388225257396698,
,,,,,,,,,,,,,,,,,,,,,,,,,,,,,,,,3.1
4634360000.0,136.54,3.2300000190734863,11990521856.0,16.95370290485132,224.0,0.014546344056725502,921600.0,2180.1766126155853,1.485964129521733e-14,0.0,2.3834590911865234,-0.02383456751704216,0.12626725435256958,-0.02383458986878395,2.2351741790771484e-08,0.0,-0.08108796924352646,0.49600332975387573,0.7709199377556781,1.5924689769744873,0.916151762008667,1.5113811492919922,1.0363130569458008,241.59913754463196,0.997342586517334,,,,,,,
4634360000.0,139.72,3.25,12041169408.0,1827.198577369367,225.0,0.010846101678907871,925696.0,2182.418295621872,1.4812803761365956e-14,0.0,2.374431848526001,-0.023744309321045876,0.18390104174613953,-0.02374431863427162,9.313225746154785e-09,0.0,-0.06010031700134277,0.6035552620887756,0.5711515549046774,1.4263170957565308,0.9110555648803711,1.3662168979644775,0.9216481447219849,2.241683006286621,0.9969007968902588,,,,,,,
4634360000.0,142.6,3.0299999713897705,12041169408.0,1773.8335854715522,226.0,0.010440141893923283,929792.0,2184.7274186611176,1.456647302777725e-14,0.0,2.4058051109313965,-0.02405805140733719,0.09455151110887527,-0.02405805140733719,-6.984919309616089e-10,0.0,-0.07563716918230057,0.42828354239463806,0.7863507739839354,1.277024507522583,0.7837292551994324,1.2013871669769287,0.9265751242637634,2.3091230392456055,0.9972426891326904,,,,,,,
4634360000.0,136.4,2.819999933242798,12041169408.0,1861.5839170060995,227.0,0.010715986602008343,933888.0,2186.9276955127716,1.3926360065141807e-14,0.0,2.3864943981170654,-0.02386493608355522,0.09873700141906738,-0.02386494353413582,7.450580596923828e-09,0.0,0.02599576860666275,0.44367361068725586,0.77692225698192,1.1850597858428955,0.8112788200378418,1.2110556364059448,0.939367413520813,2.2002768516540527,0.9970006942749023,,,,,,,
4634360000.0,140.34,3.25,12041169408.0,1816.642793599151,228.0,0.020749516785144806,937984.0,2189.1824040412903,1.3752887717544127e-14,0.0,2.3541018962860107,-0.0235410388559103,0.129259392619133,-0.02354101836681366,-2.0489096641540527e-08,0.0,0.12643946707248688,0.4925353229045868,0.844880416255731,1.5136561393737793,1.1093652248382568,1.6400954723358154,1.2505584955215454,2.2547085285186768,0.9974822998046875,,,,,,,
4634360000.0,145.35,3.7300000190734863,12041169408.0,1830.7686765668884,229.0,0.015384412370622158,942080.0,2191.419715642929,1.481627320831791e-14,0.0,2.369372844696045,-0.02369372732937336,0.10240156948566437,-0.02369372732937336,0.0,0.0,0.09376899898052216,0.44278478622436523,0.8284073238068513,1.1524360179901123,0.960414707660675,1.2462049722671509,1.0689152479171753,2.237311601638794,0.9971926212310791,,,,,,,
4634360000.0,153.19,3.7200000286102295,12041169408.0,1810.4151281884835,230.0,0.008782895281910896,946176.0,2193.6821801662445,1.478331346227435e-14,0.0,2.396674633026123,-0.023966753855347633,0.19241100549697876,-0.023966746404767036,-7.450580596923828e-09,0.0,0.01423078402876854,0.6202527284622192,0.7180492988473146,1.2927196025848389,0.9213827848434448,1.306950330734253,1.1681056022644043,2.2624645233154297,0.9971966743469238,,,,,,,
4634360000.0,169.52,4.349999904632568,12041169408.0,1817.4974481845304,231.0,0.016051802784204483,950272.0,2195.935828447342,1.4422490979271174e-14,0.0,2.365553379058838,-0.02365553379058838,0.08341462165117264,-0.02365553379058838,0.0,0.0,0.07997739315032959,0.40058961510658264,0.8303447024079087,1.1844992637634277,0.8908107280731201,1.2644766569137573,0.9725590348243713,2.253648281097412,0.9973492622375488,,,,,,,
4634360000.0,169.46,4.320000171661377,12041169408.0,1826.2246996326476,232.0,0.0179635901004076,954368.0,2198.178706884384,1.559863349598345e-14,0.0,2.3294146060943604,-0.023294148966670036,0.128606379032135,-0.023294145241379738,-3.725290298461914e-09,0.0,0.042228855192661285,0.5054619908332825,0.7953937892801238,1.2799625396728516,0.9850262403488159,1.3221914768218994,1.1174527406692505,2.2428784370422363,0.9973573684692383,,,,,,,
4634360000.0,173.08,4.380000114440918,12041169408.0,1832.2682367270193,233.0,0.010418707504868507,958464.0,2200.4141874313354,1.5064338665382593e-14,0.0,2.3463854789733887,-0.02346387319266796,0.1483171284198761,-0.02346385456621647,-1.862645149230957e-08,0.0,0.05517663061618805,0.5419054627418518,0.7576527298868783,1.3289599418640137,1.06614089012146,1.38413667678833,1.1007901430130005,2.235480546951294,0.9974644184112549,,,,,,,
4634360000.0,178.6,4.480000019073486,12041169408.0,1758.7784426993708,234.0,0.0162813737988472,962560.0,2202.7430765628815,1.552230566304047e-14,0.0,2.3505024909973145,-0.023505039513111115,0.15355366468429565,-0.02350502461194992,-1.4901161193847656e-08,0.0,0.0723632350564003,0.5494948625564575,0.8213971702318219,1.7612364292144775,1.095227837562561,1.8335998058319092,1.3002279996871948,2.3288891315460205,0.9973251819610596,,,,,,,
4634360000.0,172.29,4.829999923706055,12041169408.0,1744.996497690198,235.0,0.016670621931552887,966656.0,2205.090359210968,1.5530979280420354e-14,0.0,2.358428955078125,-0.02358429692685604,0.15693920850753784,-0.023584289476275444,-7.450580596923828e-09,0.0,0.017842693254351616,0.5600327253341675,0.7939582133062524,1.4499238729476929,1.0411231517791748,1.467766523361206,1.233774185180664,2.347282648086548,0.9973082542419434,,,,,,,
4634360000.0,173.62,4.489999771118164,12041169408.0,1769.674145090487,236.0,0.011242826469242573,970752.0,2207.4049096107483,1.4410347914939337e-14,0.0,2.3736023902893066,-0.023736020550131798,0.13545769453048706,-0.023736024275422096,3.725290298461914e-09,0.0,-0.0643182173371315,0.516569197177887,0.7424021834572114,1.4632701873779297,0.9936812520027161,1.3989520072937012,1.017788052558899,2.3145503997802734,0.9973504543304443,,,,,,,
4634360000.0,172.39,4.289999961853027,12041169408.0,1767.1908121836289,237.0,0.009464106522500515,974848.0,2209.7227125167847,1.6150275561344074e-14,0.0,2.310380220413208,-0.02310379408299923,0.1304416060447693,-0.023103801533579826,7.450580596923828e-09,0.0,-0.032251957803964615,0.5098102688789368,0.7446104998909348,1.4942253828048706,0.9707279205322266,1.4619734287261963,1.0088045597076416,2.317802906036377,0.9971647262573242,,,,,,,
4634360000.0,165.43,3.880000114440918,12041169408.0,1784.7501376491234,238.0,0.012893259525299072,978944.0,2212.0177116394043,1.5928230956419043e-14,0.0,2.312554359436035,-0.02312554232776165,0.15346741676330566,-0.02312554232776165,0.0,0.0,0.033715542405843735,0.5530576705932617,0.7962450483306148,2.042477607727051,1.121399164199829,2.076193332672119,1.2252264022827148,2.294999122619629,0.9973347187042236,,,,,,,
4634360000.0,171.74,3.819999933242798,12041169408.0,1871.4639964295943,239.0,0.013658224605023861,983040.0,2214.206372499466,1.685804273954261e-14,0.0,2.289362907409668,-0.0228936355561018,0.2533717155456543,-0.022893628105521202,-7.450580596923828e-09,0.0,0.0409880094230175,0.7107649445533752,0.7647140739564996,1.8519155979156494,1.2388331890106201,1.8929035663604736,1.465304970741272,2.1886608600616455,0.9973101615905762,,,,,,,
4634360000.0,179.51,3.859999895095825,12041169408.0,1806.2817642271268,240.0,0.012040863744914532,987136.0,2216.4740142822266,1.516321790351327e-14,0.0,2.3231663703918457,-0.023231670260429382,0.1681290566921234,-0.023231662809848785,-7.450580596923828e-09,0.0,-0.019880032166838646,0.5796076059341431,0.8028980322077532,1.7483949661254883,1.0698963403701782,1.7285149097442627,1.3055351972579956,2.26764178276062,0.9968163967132568,,,,,,,
4634360000.0,186.06,4.28000020980835,12041169408.0,1824.8321161851202,241.0,0.013931861147284508,991232.0,2218.718604326248,1.6738346819700212e-14,0.0,2.2960381507873535,-0.022960389032959938,0.17756852507591248,-0.02296038158237934,-7.450580596923828e-09,0.0,-0.0068931058049201965,0.595966637134552,0.8336219452110121,1.893200159072876,1.2018969058990479,1.8863070011138916,1.461079716682434,2.2445900440216064,0.9970846176147461,,,,,,,
4634360000.0,187.76,4.610000133514404,12041169408.0,1780.8073922935025,242.0,0.01450962945818901,995328.0,2221.0186846256256,1.7799997586998018e-14,0.0,2.2750325202941895,-0.022750327363610268,0.16604992747306824,-0.02275032550096512,-1.862645149230957e-09,0.0,-0.021723803132772446,0.5759417414665222,0.834627952405747,2.0589661598205566,1.2142853736877441,2.0372421741485596,1.4162744283676147,2.3000802993774414,0.9972021579742432,,,,,,,
4634360000.0,180.87,4.539999961853027,12041169408.0,1804.3800960865974,243.0,0.016422957181930542,999424.0,2223.288716316223,1.7517237660413798e-14,0.0,2.2491252422332764,-0.022491246461868286,0.17345485091209412,-0.022491252049803734,5.587935447692871e-09,0.0,-0.010940677486360073,0.5889607071876526,0.863840277279502,2.252840518951416,1.4276185035705566,2.2418999671936035,1.5961071252822876,2.270031690597534,0.9971802234649658,,,,,,,
4634360000.0,177.45,4.699999809265137,12041169408.0,1806.4872717912342,244.0,0.013546287082135677,1003520.0,2225.556100130081,1.5995885171982138e-14,0.0,2.2999372482299805,-0.02299937978386879,0.13644666969776154,-0.022999372333288193,-7.450580596923828e-09,0.0,0.012856824323534966,0.5222975015640259,0.8543665555280563,1.9049715995788574,1.2366727590560913,1.9178285598754883,1.3686341047286987,2.2673838138580322,0.9970240592956543,,,,,,,
4634360000.0,192.92,5.610000133514404,12041169408.0,1790.5660820844266,245.0,0.019801437854766846,1007616.0,2227.8436448574066,1.6053131046689373e-14,0.0,2.3071937561035156,-0.023071929812431335,0.24569490551948547,-0.023071937263011932,7.450580596923828e-09,0.0,0.14060324430465698,0.6868302226066589,0.8492284995036508,1.984954595565796,1.479270339012146,2.1255578994750977,1.7688449621200562,2.2875447273254395,0.997002124786377,,,,,,,
4634360000.0,186.6,5.449999809265137,12041169408.0,1805.5791753548126,246.0,0.01491283718496561,1011712.0,2230.1121690273285,1.5498019534376795e-14,0.0,2.315943956375122,-0.023159446194767952,0.16310852766036987,-0.023159438744187355,-7.450580596923828e-09,0.0,0.033172398805618286,0.5702596306800842,0.860196309139792,1.8386120796203613,1.339482069015503,1.8717844486236572,1.5251526832580566,2.268524169921875,0.9968795776367188,,,,,,,
4634360000.0,199.86,6.329999923706055,12041169408.0,1799.853431727467,247.0,0.019519388675689697,1015808.0,2232.387909889221,1.6724469031892397e-14,0.0,2.2874679565429688,-0.022874679416418076,0.24291008710861206,-0.022874679416418076,0.0,0.0,0.0638127326965332,0.6941654682159424,0.7927152377392139,2.20459246635437,1.4191049337387085,2.268404960632324,1.5246821641921997,2.2757408618927,0.9970271587371826,,,,,,,
4634360000.0,199.39,6.409999847412109,12041169408.0,1816.8352945891843,248.0,0.015976116061210632,1019904.0,2234.6423795223236,1.6849369122162727e-14,0.0,2.28084135055542,-0.022808417677879333,0.36205437779426575,-0.022808412089943886,-5.587935447692871e-09,0.0,-0.048175081610679626,0.8496847748756409,0.7919591034811376,2.3499956130981445,1.6799523830413818,2.301820755004883,1.8628742694854736,2.254469633102417,0.9970557689666748,,,,,,,
4634360000.0,202.9,6.179999828338623,12041169408.0,1789.8232649625363,249.0,0.01437428779900074,1024000.0,2236.930873632431,1.65596703016746e-14,0.0,2.277402877807617,-0.02277403697371483,0.2950786352157593,-0.022774027660489082,-8.381903171539307e-09,0.0,-0.10247980058193207,0.7614438533782959,0.7309199849269878,2.5960450172424316,1.399346947669983,2.493565082550049,1.4679023027420044,2.288494110107422,0.9967896938323975,,,,,,,
4634360000.0,194.18,5.769999980926514,12041169408.0,1848.3771742401395,250.0,0.01506189163774252,1028096.0,2239.1468715667725,1.613639777353626e-14,0.0,2.334765672683716,-0.02334764041006565,0.23395664989948273,-0.023347655311226845,1.4901161193847656e-08,0.0,-0.08716520667076111,0.6785483956336975,0.8312615702098243,2.6121573448181152,1.637442946434021,2.524991989135742,1.651862382888794,2.2159979343414307,0.9971075057983398,,,,,,,
4634360000.0,196.5,5.630000114440918,12041169408.0,1793.6143069287912,251.0,0.015584769658744335,1032192.0,2241.430528640747,1.6084356069256955e-14,0.0,2.3339080810546875,-0.023339075967669487,0.34659168124198914,-0.023339079692959785,3.725290298461914e-09,0.0,0.04353883117437363,0.8315386176109314,0.8018493193897626,2.8858609199523926,1.829869031906128,2.9293999671936035,1.8680336475372314,2.2836570739746094,0.9970541000366211,,,,,,,
4634360000.0,204.99,5.989999771118164,12041169408.0,1826.1241467747298,252.0,0.018568625673651695,1036288.0,2243.6735305786133,1.78312226095656e-14,0.0,2.3156216144561768,-0.023156212642788887,0.3905407786369324,-0.023156216368079185,3.725290298461914e-09,0.0,0.14677369594573975,0.8716217875480652,0.7771625037202856,3.1236648559570312,1.6959171295166016,3.2704386711120605,1.8464347124099731,2.243001937866211,0.9967856407165527,,,,,,,
4634360000.0,201.89,6.130000114440918,12041169408.0,1819.1535009812173,253.0,0.01991165615618229,1040384.0,2245.9251272678375,1.608262134578098e-14,0.0,2.3293251991271973,-0.023293230682611465,0.27021563053131104,-0.023293251171708107,2.0489096641540527e-08,0.0,-0.036364104598760605,0.7343299388885498,0.8945219501483748,2.85145902633667,2.0811026096343994,2.8150949478149414,2.261050224304199,2.251596689224243,0.9970488548278809,,,,,,,
4634360000.0,202.81,6.21999979019165,12041169408.0,1844.1741669378919,254.0,0.013113182038068771,1044480.0,2248.14617562294,1.7531115448221612e-14,0.0,2.3289735317230225,-0.023289736360311508,0.28781652450561523,-0.02328973449766636,-1.862645149230957e-09,0.0,-0.014193104580044746,0.7586647868156433,0.8165689537313836,3.0379366874694824,1.7074004411697388,3.0237438678741455,1.7713872194290161,2.221048355102539,0.9970216751098633,,,,,,,
4634360000.0,224.19,7.570000171661377,12041169408.0,1864.891306728868,255.0,0.022617880254983902,1048576.0,2250.34255027771,1.7512033489985868e-14,0.0,2.3379077911376953,-0.023379068821668625,0.3586966395378113,-0.02337907813489437,9.313225746154785e-09,0.0,0.09065365046262741,0.8422281742095947,0.8206815049313719,3.213998317718506,1.824609637260437,3.3046517372131348,1.9889193773269653,2.1963746547698975,0.9970993995666504,,,,,,,
,,,,,,,,,,,,,,,,,,,,,,,,,,0.03956959769129753,0.47652801871299744,0.46702754497528076,0.03956959769129753,0.47652801871299744,0.46702754497528076,
,,,,,,,,,,,,,,,,,,,,,,,,,,0.020426880568265915,0.34559714794158936,0.3389386534690857,0.020426880568265915,0.34559714794158936,0.3389386534690857,
,,,,,,,,,,,,,,,,,,,,,,,,,,0.02208809368312359,0.3167966604232788,0.3138223886489868,0.02208809368312359,0.3167966604232788,0.3138223886489868,
,,,,,,,,,,,,,,,,,,,,,,,,,,0.01671428419649601,0.2997611165046692,0.2930893003940582,0.01671428419649601,0.2997611165046692,0.2930893003940582,
,,,,,,,,,,,,,,,,,,,,,,,,,,0.014256853610277176,0.2719327509403229,0.2615787386894226,0.014256853610277176,0.2719327509403229,0.2615787386894226,
