CpuMaxMemory,EpLenMean,EpRewMean,GpuMaxMemory,IPS_total,Iter,Misc/FrameRewMean,Misc/InteractCount,Misc/TimeElapsed,Opt/approxkl,Opt/clipfrac,Opt/entropy,Opt/loss_pi,Opt/loss_vf,Opt/negent,Opt/pg,Opt/pi_kl,VFStats/AdvMean,VFStats/AdvStd,VFStats/EV,VFStats/VpredMean,VFStats/VpredStd,VFStats/VtargMean,VFStats/VtargStd,del_time,wait_optimization,scaled/pol_distance,scaled/vf_aux,scaled/vf_true,unscaled/pol_distance,unscaled/vf_aux,unscaled/vf_true,EvalEpMean
3031592000.0,82.55263157894737,-1.9473683834075928,11965495808.0,1676.7355354107185,0.0,-0.011754531413316727,4096.0,2.4428420066833496,3.9621084191310274e-15,0.0,2.70645809173584,-0.02706458792090416,0.16469717025756836,-0.027064580470323563,-7.450580596923828e-09,0.0,-0.1853068768978119,0.5432566404342651,-0.002755824762631587,-0.006976104341447353,0.01016542874276638,-0.19228297472000122,0.5425095558166504,2.4428420066833496,1.0281240940093994,,,,,,,
3081980000.0,86.0340909090909,-2.0681817531585693,12031147008.0,1802.1613706181472,1.0,-0.007797230500727892,8192.0,4.715668439865112,4.794775687599895e-15,0.0,2.6983094215393066,-0.026983102783560753,0.10972779989242554,-0.026983093470335007,-9.313225746154785e-09,0.0,-0.03322288393974304,0.46733835339546204,0.0225755924756873,-0.27786141633987427,0.06121145561337471,-0.3110842704772949,0.47270461916923523,2.2728264331817627,0.9977097511291504,,,,,,,
3131344000.0,84.89,-2.309999942779541,12031147008.0,1800.4460889622069,2.0,-0.012965822592377663,12288.0,6.990660190582275,5.266620473065586e-15,0.0,2.687985420227051,-0.026879843324422836,0.1492474526166916,-0.02687985450029373,1.1175870895385742e-08,0.0,0.0024018902331590652,0.5464082956314087,0.09424696242473474,-0.6372417211532593,0.15207481384277344,-0.6348397731781006,0.5741328001022339,2.274991750717163,0.9980442523956299,,,,,,,
3180448000.0,85.01,-1.7000000476837158,12031147008.0,1713.1565023260414,3.0,-0.007853717543184757,16384.0,9.381568431854248,5.953570969552402e-15,0.0,2.6724729537963867,-0.02672470733523369,0.21399785578250885,-0.02672472968697548,2.2351741790771484e-08,0.0,0.12415024638175964,0.6424041986465454,0.07204226968170302,-1.1629319190979004,0.2751883268356323,-1.0387816429138184,0.6668746471405029,2.3909082412719727,0.9978761672973633,,,,,,,
3229816000.0,85.69,-1.2999999523162842,12031147008.0,1743.7586246166595,4.0,-0.005673868115991354,20480.0,11.730517387390137,5.847752837517817e-15,0.0,2.6602067947387695,-0.02660207264125347,0.1509103775024414,-0.026602067053318024,-5.122274160385132e-09,0.0,0.09710781276226044,0.540797770023346,0.0844261753544987,-0.8500112891197205,0.1602001190185547,-0.7529034614562988,0.5651818513870239,2.3489489555358887,0.9978809356689453,,,,,,,
3278920000.0,84.23,-1.9600000381469727,12031147008.0,1738.5418728164968,5.0,-0.015452206134796143,24576.0,14.086514711380005,5.374173328576148e-15,0.0,2.6528677940368652,-0.026528695598244667,0.1941143125295639,-0.026528676971793175,-1.862645149230957e-08,0.0,-0.08882137387990952,0.6167919039726257,0.08080197927224275,-0.4844473898410797,0.12945556640625,-0.5732687711715698,0.643330454826355,2.355997323989868,0.9980688095092773,,,,,,,
3328024000.0,84.24,-2.869999885559082,12031147008.0,1806.351464417549,6.0,-0.016373196616768837,28672.0,16.354068994522095,6.161737786669619e-15,0.0,2.6244089603424072,-0.02624410390853882,0.18258386850357056,-0.026244089007377625,-1.4901161193847656e-08,0.0,-0.1424814909696579,0.5873252749443054,0.04941613990891869,-0.3843233585357666,0.10075563192367554,-0.5268048048019409,0.6023979187011719,2.26755428314209,0.997600793838501,,,,,,,
3377392000.0,84.03,-2.119999885559082,12031147008.0,1750.5290789242947,7.0,-0.008877703920006752,32768.0,18.69393301010132,5.7783638984787444e-15,0.0,2.5794711112976074,-0.02579471468925476,0.13416239619255066,-0.025794710963964462,-2.7939677238464355e-09,0.0,-0.033392660319805145,0.5169864892959595,0.03244702680349898,-0.33579501509666443,0.09134100377559662,-0.3691876530647278,0.5255835652351379,2.3398640155792236,0.9979031085968018,,,,,,,
3426496000.0,80.94,-1.7300000190734863,12031147008.0,1752.0468850500617,8.0,-0.012599552981555462,36864.0,21.03176999092102,6.4080685202583254e-15,0.0,2.473499298095703,-0.02473500743508339,0.145993173122406,-0.024734992533922195,-1.5832483768463135e-08,0.0,-0.08531543612480164,0.5336451530456543,0.04802378598681445,-0.3561980724334717,0.10291283577680588,-0.4415135085582733,0.5469398498535156,2.337836980819702,0.9974186420440674,,,,,,,
3475600000.0,74.65,-1.649999976158142,12031147008.0,1764.756132471534,9.0,-0.008200742304325104,40960.0,23.352770566940308,6.477457459297398e-15,0.0,2.4182682037353516,-0.02418268658220768,0.0900539755821228,-0.024182680994272232,-5.587935447692871e-09,0.0,-0.005679675377905369,0.4244050979614258,0.08900170038135091,-0.40474653244018555,0.09918675571680069,-0.41042619943618774,0.4446535110473633,2.321000576019287,0.9978592395782471,,,,,,,
3524968000.0,75.82,-1.159999966621399,12031147008.0,1802.2627049735381,10.0,-0.003174011129885912,45056.0,25.625469207763672,7.016956460326185e-15,0.0,2.3486337661743164,-0.023486346006393433,0.0712379664182663,-0.023486336693167686,-1.0244548320770264e-08,0.0,0.07761172950267792,0.3694396913051605,0.10470997283047245,-0.46029356122016907,0.133307084441185,-0.38268184661865234,0.39044657349586487,2.2726986408233643,0.998035192489624,,,,,,,
3574336000.0,78.01,-1.4900000095367432,12031147008.0,1728.9171325117393,11.0,-0.01660519652068615,49152.0,27.994582176208496,6.813993813636898e-15,0.0,2.3729498386383057,-0.02372949756681919,0.18551145493984222,-0.02372949756681919,0.0,0.0,-0.11515584588050842,0.5982051491737366,0.10888134737927524,-0.4653768539428711,0.140372633934021,-0.5805326700210571,0.633698046207428,2.369112968444824,0.998183012008667,,,,,,,
3623704000.0,78.25,-1.8899999856948853,12031147008.0,1734.2291887127267,12.0,-0.0049186148680746555,53248.0,30.356438398361206,6.430619925446024e-15,0.0,2.399513006210327,-0.02399512752890587,0.09671784192323685,-0.023995129391551018,1.862645149230957e-09,0.0,0.0655941292643547,0.4349474310874939,-0.01862440132214549,-0.532305121421814,0.1653861105442047,-0.46671101450920105,0.43095290660858154,2.36185622215271,0.9977118968963623,,,,,,,
3673336000.0,81.66,-2.049999952316284,12031147008.0,1685.4696579304452,13.0,-0.017905108630657196,57344.0,32.78662157058716,5.943162628696541e-15,0.0,2.4635205268859863,-0.024635203182697296,0.21276883780956268,-0.024635205045342445,1.862645149230957e-09,0.0,-0.15124273300170898,0.6346350312232971,0.10626139887812969,-0.5431681871414185,0.1755756139755249,-0.6944109201431274,0.671303391456604,2.430183172225952,0.997708797454834,,,,,,,
3722704000.0,82.19,-2.4700000286102295,12031147008.0,1820.3622722278203,14.0,-0.009882135316729546,61440.0,35.036723136901855,5.736730535055301e-15,0.0,2.499302387237549,-0.024993008002638817,0.1405920833349228,-0.02499302290380001,1.4901161193847656e-08,0.0,0.03322582691907883,0.5292906761169434,0.07187674937834143,-0.6630978584289551,0.2104075849056244,-0.6298720836639404,0.5494035482406616,2.2501015663146973,0.9974241256713867,,,,,,,
3772336000.0,75.01,-1.4500000476837158,12031147008.0,1811.9822280948613,15.0,-0.008600927889347076,65536.0,37.2972309589386,6.059389101586987e-15,0.0,2.5060994625091553,-0.025061003863811493,0.1284330189228058,-0.025060994550585747,-9.313225746154785e-09,0.0,0.08888166397809982,0.49902594089508057,0.05098078107810533,-0.6796720027923584,0.20171400904655457,-0.5907903909683228,0.5122543573379517,2.260507822036743,0.9975318908691406,,,,,,,
3821704000.0,74.89,-1.1799999475479126,12031147008.0,1753.1573588064887,16.0,-0.005673225037753582,69632.0,39.6335871219635,6.30225038822374e-15,0.0,2.4540326595306396,-0.024540308862924576,0.12292583286762238,-0.02454032562673092,1.7695128917694092e-08,0.0,0.08783106505870819,0.4880527853965759,0.0919754329010487,-0.710474967956543,0.22911833226680756,-0.6226438283920288,0.5121745467185974,2.3363561630249023,0.9976387023925781,,,,,,,
3871336000.0,72.19,-1.2999999523162842,12031147008.0,1702.471951016001,17.0,-0.011254824697971344,73728.0,42.03950047492981,6.621439507803473e-15,0.0,2.3958635330200195,-0.02395862713456154,0.16011255979537964,-0.023958634585142136,7.450580596923828e-09,0.0,-0.015387607738375664,0.5657442212104797,0.08458433186540792,-0.5863274335861206,0.1826479285955429,-0.6017150282859802,0.5913041830062866,2.4059133529663086,0.9977126121520996,,,,,,,
3920704000.0,75.41,-1.6200000047683716,12031147008.0,1787.790296637045,18.0,-0.009305841289460659,77824.0,44.330596923828125,6.895525817007808e-15,0.0,2.3934309482574463,-0.023934312164783478,0.12984979152679443,-0.02393430843949318,-3.725290298461914e-09,0.0,-0.008792616426944733,0.5095935463905334,0.07051480893574147,-0.4964926242828369,0.14842776954174042,-0.5052852630615234,0.528570294380188,2.2910964488983154,0.9975764751434326,,,,,,,
3970336000.0,77.58,-1.5299999713897705,12031147008.0,1776.4851533103883,19.0,-0.010326797142624855,81920.0,46.63627338409424,6.446232436729815e-15,0.0,2.3613171577453613,-0.023613179102540016,0.11827489733695984,-0.02361317165195942,-7.450580596923828e-09,0.0,-0.021594269201159477,0.4859435558319092,0.06484009073964392,-0.48688918352127075,0.14339043200016022,-0.5084834098815918,0.5025078654289246,2.3056764602661133,0.9978392124176025,,,,,,,
4019968000.0,76.64,-1.4500000476837158,12031147008.0,1736.9932724868786,20.0,-0.009183867834508419,86016.0,48.99437117576599,5.9847959921199845e-15,0.0,2.4363059997558594,-0.024363063275814056,0.1298747956752777,-0.024363059550523758,-2.7939677238464355e-09,0.0,-0.01639580726623535,0.5094547271728516,0.07178224313839199,-0.4441998302936554,0.110017791390419,-0.46059563755989075,0.528786838054657,2.358097791671753,0.9979519844055176,,,,,,,
4069336000.0,78.15,-1.7799999713897705,12031147008.0,1683.9710401825212,21.0,-0.012058732099831104,90112.0,51.426717042922974,6.130512764102036e-15,0.0,2.423276901245117,-0.024232767522335052,0.17505118250846863,-0.0242327693849802,1.862645149230957e-09,0.0,-0.030514217913150787,0.590979278087616,0.012244173911055811,-0.45112234354019165,0.09113291651010513,-0.48163652420043945,0.5946308970451355,2.4323458671569824,0.99784255027771,,,,,,,
4118968000.0,77.85,-2.0399999618530273,12031147008.0,1802.0093904494242,22.0,-0.013350799679756165,94208.0,53.699735164642334,6.069797442442848e-15,0.0,2.434619188308716,-0.024346191436052322,0.16001689434051514,-0.024346191436052322,0.0,0.0,-0.043961234390735626,0.5640735030174255,0.059866267086989056,-0.4870954751968384,0.07715112715959549,-0.5310567021369934,0.5817559957504272,2.2730181217193604,0.9984664916992188,,,,,,,
4168336000.0,75.98,-1.9600000381469727,12031147008.0,1757.1826342393429,23.0,-0.011516140773892403,98304.0,56.030739307403564,5.774894451526791e-15,0.0,2.4162487983703613,-0.024162478744983673,0.1374967098236084,-0.02416248805820942,1.0244548320770264e-08,0.0,0.002358067315071821,0.5244568586349487,0.019177670536491997,-0.5621020197868347,0.084750697016716,-0.5597439408302307,0.5295592546463013,2.3310041427612305,0.9976084232330322,,,,,,,
4217968000.0,76.88,-2.130000114440918,12031147008.0,1777.0410122053029,24.0,-0.01570791006088257,102400.0,58.335694551467896,6.232861449184668e-15,0.0,2.432827949523926,-0.02432827837765217,0.2059188187122345,-0.02432827837765217,0.0,0.0,-0.07536349445581436,0.6373830437660217,0.12032792344130805,-0.6543910503387451,0.11827228963375092,-0.7297545075416565,0.6795792579650879,2.304955244064331,0.9976623058319092,,,,,,,
4267600000.0,79.61,-1.7599999904632568,12031147008.0,1693.7800908535573,25.0,-0.004955892916768789,106496.0,60.7539541721344,6.657868700798986e-15,0.0,2.425358295440674,-0.024253593757748604,0.1320929378271103,-0.02425358258187771,-1.1175870895385742e-08,0.0,0.13544940948486328,0.49588242173194885,0.1017994245423498,-0.859819769859314,0.1625525802373886,-0.7243702411651611,0.5232292413711548,2.418259620666504,0.9977560043334961,,,,,,,
4316968000.0,81.42,-1.9199999570846558,12031147008.0,1681.1413435729125,26.0,-0.014360185712575912,110592.0,63.190394163131714,5.729791641151394e-15,0.0,2.441028118133545,-0.024410273879766464,0.21850799024105072,-0.02441028133034706,8.381903171539307e-09,0.0,-0.008354559540748596,0.6610997319221497,0.003238632832851751,-0.7789692878723145,0.14158779382705688,-0.7873238325119019,0.6621729135513306,2.4364399909973145,0.9980602264404297,,,,,,,
4366600000.0,80.28,-1.9299999475479126,12031147008.0,1789.676155112976,27.0,-0.0061085280030965805,114688.0,65.47907638549805,5.497338695370502e-15,0.0,2.4389326572418213,-0.02438933588564396,0.11921245604753494,-0.024389326572418213,-9.313225746154785e-09,0.0,0.08604604005813599,0.4807051122188568,0.1296344786582172,-0.7121381759643555,0.13920184969902039,-0.6260921359062195,0.5152617692947388,2.288682222366333,0.9977257251739502,,,,,,,
4415968000.0,78.34,-1.309999942779541,12031147008.0,1761.7386404934712,28.0,-0.009649801068007946,118784.0,67.80405235290527,6.2640864717522504e-15,0.0,2.416490316390991,-0.024164902046322823,0.15118743479251862,-0.024164902046322823,0.0,0.0,-0.008004037663340569,0.5498951077461243,0.07088823557630686,-0.5513292551040649,0.12256618589162827,-0.5593332648277283,0.5704872012138367,2.3249759674072266,0.9982209205627441,,,,,,,
4465600000.0,79.8,-1.5800000429153442,12031147008.0,1757.772877030573,29.0,-0.009818745777010918,122880.0,70.13427376747131,6.8747091352960865e-15,0.0,2.4191858768463135,-0.024191854521632195,0.12220244109630585,-0.024191858246922493,3.725290298461914e-09,0.0,-0.03155484050512314,0.4934253990650177,0.12471468148313414,-0.4564695954322815,0.11398817598819733,-0.48802444338798523,0.5274080038070679,2.33022141456604,0.9975862503051758,,,,,,,
4514968000.0,77.86,-1.5499999523162842,12031147008.0,1730.0780881424096,30.0,-0.011502180248498917,126976.0,72.50179696083069,6.3889865620225805e-15,0.0,2.49106502532959,-0.024910639971494675,0.14045995473861694,-0.02491064928472042,9.313225746154785e-09,0.0,-0.0477638766169548,0.5279266834259033,0.11676115631174999,-0.41496920585632324,0.12089498341083527,-0.46273308992385864,0.561738908290863,2.367523193359375,0.9977242946624756,,,,,,,
4564508000.0,77.06,-1.559999942779541,12031147008.0,1775.2513796794583,31.0,-0.0085511589422822,131072.0,74.80907583236694,6.130512764102036e-15,0.0,2.5105175971984863,-0.025105174630880356,0.11295244842767715,-0.025105174630880356,0.0,0.0,0.0183122418820858,0.47499963641166687,0.08409097170410584,-0.3970664143562317,0.11541904509067535,-0.378754198551178,0.49632611870765686,2.307278871536255,0.9977028369903564,,,,,,,
,,,,,,,,,,,,,,,,,,,,,,,,,,0.003851282177492976,0.16575956344604492,0.15155993402004242,0.003851282177492976,0.16575956344604492,0.15155993402004242,
,,,,,,,,,,,,,,,,,,,,,,,,,,0.002038153586909175,0.13268306851387024,0.12077560275793076,0.002038153586909175,0.13268306851387024,0.12077560275793076,
,,,,,,,,,,,,,,,,,,,,,,,,,,0.0016662790440022945,0.11121350526809692,0.10608042776584625,0.0016662790440022945,0.11121350526809692,0.10608042776584625,
,,,,,,,,,,,,,,,,,,,,,,,,,,0.001203786232508719,0.10366633534431458,0.09974399209022522,0.001203786232508719,0.10366633534431458,0.09974399209022522,
,,,,,,,,,,,,,,,,,,,,,,,,,,0.0015318043297156692,0.09863529354333878,0.0944860577583313,0.0015318043297156692,0.09863529354333878,0.0944860577583313,
,,,,,,,,,,,,,,,,,,,,,,,,,,0.00131207553204149,0.09153421223163605,0.08856631815433502,0.00131207553204149,0.09153421223163605,0.08856631815433502,
,,,,,,,,,,,,,,,,,,,,,,,,,,,,,,,,-1.85
4583760000.0,79.68,-1.5199999809265137,11990518784.0,16.820947424362647,32.0,-0.008005226962268353,135168.0,318.3149793148041,4.945696630009877e-15,0.0,2.5213751792907715,-0.025213750079274178,0.0697900801897049,-0.025213751941919327,1.862645149230957e-09,0.0,0.03916516155004501,0.37159112095832825,0.5681389325976038,-0.512191653251648,0.36112597584724426,-0.47302645444869995,0.5654488205909729,243.50590348243713,0.9979441165924072,,,,,,,
4583760000.0,78.28,-1.899999976158142,12041169408.0,1813.6521737019066,33.0,-0.012646820396184921,139264.0,320.57340574264526,5.545910952697852e-15,0.0,2.513730525970459,-0.025137297809123993,0.1083759292960167,-0.02513730525970459,7.450580596923828e-09,0.0,-0.021030941978096962,0.4651477038860321,0.6372078446619103,-0.5259239077568054,0.4330447018146515,-0.546954870223999,0.7722572088241577,2.2584264278411865,0.9976918697357178,,,,,,,
4583760000.0,79.94,-1.9299999475479126,12041169408.0,1769.3843488420332,34.0,-0.012652303092181683,143360.0,322.8883352279663,5.540706782269922e-15,0.0,2.524766206741333,-0.02524765394628048,0.12283489853143692,-0.025247661396861076,7.450580596923828e-09,0.0,0.021476585417985916,0.4952458441257477,0.5800823588715595,-0.6305521726608276,0.49121472239494324,-0.6090756058692932,0.7642558813095093,2.314929485321045,0.9976978302001953,,,,,,,
4583760000.0,82.22,-1.909999966621399,12041169408.0,1752.5099626563601,35.0,-0.015587751753628254,147456.0,325.22555446624756,4.964778588245622e-15,0.0,2.5437703132629395,-0.025437718257308006,0.12578429281711578,-0.025437703356146812,-1.4901161193847656e-08,0.0,0.014875926077365875,0.501406729221344,0.662112620839538,-0.6647573113441467,0.5845437049865723,-0.6498813629150391,0.862589418888092,2.33721923828125,0.9975175857543945,,,,,,,
4583760000.0,77.59,-2.009999990463257,12041169408.0,1765.3618149948386,36.0,-0.007412887178361416,151552.0,327.54575872421265,5.056718932472393e-15,0.0,2.5253448486328125,-0.025253433734178543,0.07753775268793106,-0.025253448635339737,1.3969838619232178e-08,0.0,0.11334238946437836,0.3771786689758301,0.7033383036994336,-0.7006531357765198,0.6101590991020203,-0.5873107314109802,0.6924945712089539,2.320204257965088,0.9979405403137207,,,,,,,
4583760000.0,76.99,-1.7100000381469727,12041169408.0,1808.8320724582793,37.0,-0.012951726093888283,155648.0,329.8102033138275,5.59621793350118e-15,0.0,2.483501434326172,-0.02483501471579075,0.09519163519144058,-0.02483501471579075,0.0,0.0,0.0741659551858902,0.430032342672348,0.7085358542131273,-0.7335011959075928,0.6291750073432922,-0.6593352556228638,0.7965417504310608,2.264444589614868,0.9978561401367188,,,,,,,
4583760000.0,74.42,-1.659999966621399,12041169408.0,1738.8454124293373,38.0,-0.009843774139881134,159744.0,332.16578936576843,4.90059381963448e-15,0.0,2.4601197242736816,-0.024601202458143234,0.10239723324775696,-0.024601196870207787,-6.05359673500061e-09,0.0,0.06668967008590698,0.44765594601631165,0.7324500898074644,-0.6252999901771545,0.6667099595069885,-0.5586103200912476,0.8654499053955078,2.355586051940918,0.9980301856994629,,,,,,,
4583760000.0,74.61,-1.3899999856948853,12041169408.0,1805.3731154566967,39.0,-0.007952878251671791,163840.0,334.4345724582672,5.141720382795256e-15,0.0,2.4262242317199707,-0.024262238293886185,0.0720224604010582,-0.024262242019176483,3.725290298461914e-09,0.0,0.10558982193470001,0.36459317803382874,0.7134602990781729,-0.5079398155212402,0.5886196494102478,-0.4023500084877014,0.6811081767082214,2.2687830924987793,0.9978952407836914,,,,,,,
4583760000.0,73.02,-1.2300000190734863,12041169408.0,1802.2655409869567,40.0,-0.008594514802098274,167936.0,336.7072675228119,5.240599620925934e-15,0.0,2.3684396743774414,-0.023684386163949966,0.07992368936538696,-0.023684395477175713,9.313225746154785e-09,0.0,0.06031715124845505,0.3952814042568207,0.7738732087636565,-0.4698178768157959,0.7421556115150452,-0.40950071811676025,0.8312475085258484,2.2726950645446777,0.9977619647979736,,,,,,,
4583760000.0,73.13,-1.5800000429153442,12041169408.0,1778.5256183658703,41.0,-0.011618895456194878,172032.0,339.01029872894287,5.0046772281930885e-15,0.0,2.2867839336395264,-0.022867834195494652,0.08499400317668915,-0.02286783792078495,3.725290298461914e-09,0.0,0.02043938636779785,0.4118393361568451,0.7282986607036459,-0.4328901767730713,0.6862615346908569,-0.41245079040527344,0.7900997400283813,2.3030312061309814,0.9977810382843018,,,,,,,
4583760000.0,76.75,-1.440000057220459,12041169408.0,1737.3006636073897,42.0,-0.009226551279425621,176128.0,341.3679792881012,6.042041866827219e-15,0.0,2.230678081512451,-0.0223067719489336,0.08660763502120972,-0.0223067793995142,6.752088665962219e-09,0.0,0.08192150294780731,0.4080989956855774,0.6506519148679872,-0.31319788098335266,0.6298672556877136,-0.23127636313438416,0.6904565691947937,2.357680559158325,0.9977927207946777,,,,,,,
4583760000.0,77.3,-1.3200000524520874,12041169408.0,1800.3377895351373,43.0,-0.007671885192394257,180224.0,343.64310789108276,5.6794846603480664e-15,0.0,2.2145156860351562,-0.02214515581727028,0.052165862172842026,-0.02214515581727028,-9.313225746154785e-10,0.0,0.014140624552965164,0.32273393869400024,0.7294657945629093,-0.1405615359544754,0.5617659091949463,-0.12642091512680054,0.620488166809082,2.2751286029815674,0.9977128505706787,,,,,,,
4583760000.0,77.45,-1.6699999570846558,12041169408.0,1722.7955854380748,44.0,-0.01171366311609745,184320.0,346.0206389427185,5.780098621954721e-15,0.0,2.1836040019989014,-0.021836036816239357,0.0821734070777893,-0.021836038678884506,2.3283064365386963e-09,0.0,-0.06959819793701172,0.3994269073009491,0.6982884111301129,-0.13941681385040283,0.5913026332855225,-0.20901501178741455,0.7271789908409119,2.377531051635742,0.9978158473968506,,,,,,,
4583760000.0,75.68,-1.4600000381469727,12041169408.0,1754.5293790419971,45.0,-0.006000853143632412,188416.0,348.35516810417175,5.608360997833017e-15,0.0,2.1641321182250977,-0.02164134383201599,0.0636613592505455,-0.0216413214802742,-2.2351741790771484e-08,0.0,-0.02260565385222435,0.3561497628688812,0.526584825251711,-0.020567724481225014,0.40702858567237854,-0.043173376470804214,0.5176206231117249,2.334529161453247,0.9985480308532715,,,,,,,
4583760000.0,77.6,-0.7300000190734863,12041169408.0,1800.895463197404,46.0,-0.003693029750138521,192512.0,350.6295921802521,5.740199982007255e-15,0.0,2.175323724746704,-0.021753251552581787,0.05111417919397354,-0.021753236651420593,-1.4901161193847656e-08,0.0,0.01246120035648346,0.319527804851532,0.496097527701276,-0.014068170450627804,0.42860639095306396,-0.0016069700941443443,0.45012733340263367,2.2744240760803223,0.9978010654449463,,,,,,,
4583760000.0,75.62,-0.9100000262260437,12041169408.0,1754.5028600759017,47.0,-0.007650049403309822,196608.0,352.96415662765503,5.9674487573602164e-15,0.0,2.161083221435547,-0.021610837429761887,0.07062816619873047,-0.02161083184182644,-5.587935447692871e-09,0.0,-0.05623023584485054,0.37165600061416626,0.5989279629376003,-0.018061578273773193,0.3853675425052643,-0.07429181039333344,0.5868539214134216,2.334564447402954,0.9979755878448486,,,,,,,
4583760000.0,76.52,-1.2699999809265137,12041169408.0,1814.8126158958937,48.0,-0.008171716704964638,200704.0,355.2211389541626,6.324801793411439e-15,0.0,2.1164865493774414,-0.02116486430168152,0.05863107740879059,-0.02116486430168152,-9.313225746154785e-10,0.0,-0.03708929568529129,0.34046265482902527,0.6690344592446273,-0.027113735675811768,0.4228622317314148,-0.06420303136110306,0.5918042659759521,2.2569823265075684,0.9976086616516113,,,,,,,
4583760000.0,75.75,-1.5499999523162842,12041169408.0,1778.4444252589064,49.0,-0.013108872808516026,204800.0,357.52427530288696,7.400330348517059e-15,0.0,2.0379559993743896,-0.020379558205604553,0.07229435443878174,-0.020379560068249702,1.862645149230957e-09,0.0,-0.05955509841442108,0.37560129165649414,0.6924940919988865,-0.07943659275770187,0.4670812487602234,-0.13899168372154236,0.6773300766944885,2.3031363487243652,0.9979114532470703,,,,,,,
4583760000.0,75.07,-1.4299999475479126,12041169408.0,1762.8880290782283,50.0,-0.0053390637040138245,208896.0,359.84773540496826,8.746475765875061e-15,0.0,1.9297630786895752,-0.01929761841893196,0.03696534037590027,-0.019297629594802856,1.1175870895385742e-08,0.0,0.011417374014854431,0.2716953456401825,0.7251960756137017,-0.07107467949390411,0.42453259229660034,-0.059657298028469086,0.5182874798774719,2.323460102081299,0.998293399810791,,,,,,,
4583760000.0,75.83,-1.1699999570846558,12041169408.0,1736.461654884816,51.0,-0.009455175139009953,212992.0,362.20655512809753,1.0430892261048541e-14,0.0,1.7835144996643066,-0.017835142090916634,0.05223224312067032,-0.017835143953561783,1.862645149230957e-09,0.0,-0.005963245406746864,0.32319408655166626,0.7117386481057505,-0.17158788442611694,0.4806000292301178,-0.17755112051963806,0.6019635796546936,2.3588197231292725,0.9978506565093994,,,,,,,
4583760000.0,77.1,-1.1399999856948853,12041169408.0,1775.314486128829,52.0,-0.0042488425970077515,217088.0,364.5137519836426,8.982398158607907e-15,0.0,1.8304247856140137,-0.01830424927175045,0.03753934055566788,-0.0183042474091053,-1.862645149230957e-09,0.0,0.01566212996840477,0.2735902965068817,0.6985122429358941,-0.14480924606323242,0.41117218136787415,-0.12914712727069855,0.49827125668525696,2.307196855545044,0.99798583984375,,,,,,,
4583760000.0,76.32,-1.2100000381469727,12041169408.0,1755.98467068904,53.0,-0.011017020791769028,221184.0,366.8463463783264,9.435160985837854e-15,0.0,1.7900795936584473,-0.01790079101920128,0.06194435805082321,-0.017900794744491577,3.725290298461914e-09,0.0,-0.02707553282380104,0.35097819566726685,0.769585414863052,-0.27021047472953796,0.5703575015068054,-0.2972860336303711,0.7311813831329346,2.332594394683838,0.9979903697967529,,,,,,,
4583760000.0,73.99,-1.2200000286102295,12041169408.0,1801.520354661029,54.0,-0.006911909207701683,225280.0,369.1199815273285,9.39352762241441e-15,0.0,1.7496238946914673,-0.017496254295110703,0.04899851232767105,-0.01749623939394951,-1.4901161193847656e-08,0.0,-0.010305624455213547,0.31291326880455017,0.8625724490221135,-0.3581778407096863,0.7393462061882019,-0.3684834837913513,0.844086766242981,2.273635149002075,0.9978799819946289,,,,,,,
4583760000.0,75.62,-1.2999999523162842,12041169408.0,1779.2762230338692,55.0,-0.011189951561391354,229376.0,371.42204117774963,9.112502419306168e-15,0.0,1.756646990776062,-0.017566468566656113,0.049818508327007294,-0.017566470429301262,1.862645149230957e-09,0.0,0.005024619400501251,0.31565186381340027,0.8581687705078654,-0.39058518409729004,0.7238285541534424,-0.3855605721473694,0.8381512761116028,2.3020596504211426,0.9981644153594971,,,,,,,
4583760000.0,75.57,-1.3300000429153442,12041169408.0,1789.6468851885904,56.0,-0.006944421678781509,233472.0,373.7107608318329,9.593020822151743e-15,0.0,1.7631357908248901,-0.017631355673074722,0.049816474318504333,-0.01763135753571987,1.862645149230957e-09,0.0,0.04045472666621208,0.3130819499492645,0.8252447176209537,-0.4481600522994995,0.696799099445343,-0.40770530700683594,0.7489327788352966,2.288719654083252,0.9978756904602051,,,,,,,
4583760000.0,75.44,-1.0700000524520874,12041169408.0,1762.9479077763938,57.0,-0.007479132618755102,237568.0,376.0341420173645,9.253015020860289e-15,0.0,1.7244255542755127,-0.0172442514449358,0.06499694287776947,-0.017244255170226097,3.725290298461914e-09,0.0,0.07691460847854614,0.3522901237010956,0.7723368228572948,-0.46943360567092896,0.7325459122657776,-0.3925190269947052,0.7383360862731934,2.323381185531616,0.9977054595947266,,,,,,,
4583760000.0,77.04,-1.059999942779541,12041169408.0,1730.5831408489835,58.0,-0.006998238153755665,241664.0,378.40097427368164,9.423017921506016e-15,0.0,1.7325706481933594,-0.017325714230537415,0.04867567494511604,-0.017325706779956818,-7.450580596923828e-09,0.0,0.03099263645708561,0.3105066120624542,0.8124111206465975,-0.32560354471206665,0.6576361656188965,-0.2946108877658844,0.7169143557548523,2.3668322563171387,0.9978556632995605,,,,,,,
4583760000.0,76.13,-1.059999942779541,12041169408.0,1804.3101689510934,59.0,-0.006130385212600231,245760.0,380.67109394073486,1.0014558626814107e-14,0.0,1.6796557903289795,-0.016796549782156944,0.034776471555233,-0.01679655723273754,7.450580596923828e-09,0.0,0.018028872087597847,0.2631440758705139,0.7351839986202118,-0.19114944338798523,0.45699402689933777,-0.17312057316303253,0.5113537907600403,2.2701196670532227,0.9978344440460205,,,,,,,
4583760000.0,74.49,-1.1100000143051147,12041169408.0,1760.1942646327764,60.0,-0.0085817351937294,249856.0,382.9981098175049,1.0706713293728853e-14,0.0,1.6998097896575928,-0.01699809357523918,0.040154725313186646,-0.01699809730052948,2.7939677238464355e-09,0.0,0.002487605670467019,0.283412903547287,0.8326702931828296,-0.22171622514724731,0.5891218781471252,-0.2192286252975464,0.6928402185440063,2.3270158767700195,0.9978296756744385,,,,,,,
4583760000.0,74.94,-1.4900000095367432,12041169408.0,1816.3456690715634,61.0,-0.013085408136248589,253952.0,385.25318717956543,9.63812363252714e-15,0.0,1.7527985572814941,-0.017527986317873,0.04174787551164627,-0.017527984455227852,-9.313225746154785e-10,0.0,-0.06613683700561523,0.28132009506225586,0.8491545844842439,-0.19054166972637177,0.5814438462257385,-0.2566785216331482,0.724327027797699,2.255077362060547,0.9976553916931152,,,,,,,
4583760000.0,72.34,-1.690000057220459,12041169408.0,1766.945079267323,62.0,-0.009242787025868893,258048.0,387.57131242752075,1.0554057627842894e-14,0.0,1.7055820226669312,-0.017055818811058998,0.036625321954488754,-0.017055820673704147,1.862645149230957e-09,0.0,-0.024951014667749405,0.26952889561653137,0.7996390938594664,-0.10861720889806747,0.48585960268974304,-0.13356822729110718,0.6021418571472168,2.3181252479553223,0.9978106021881104,,,,,,,
4630340000.0,73.89,-1.0499999523162842,12041169408.0,1734.3499902530405,63.0,-0.00848420336842537,262144.0,389.9330041408539,9.669348655094723e-15,0.0,1.848031759262085,-0.018480317667126656,0.046274349093437195,-0.018480317667126656,0.0,0.0,-0.04164739325642586,0.30139073729515076,0.776602838686743,-0.08838500827550888,0.49055659770965576,-0.13003242015838623,0.6376627683639526,2.36169171333313,0.9980037212371826,,,,,,,
,,,,,,,,,,,,,,,,,,,,,,,,,,0.002242026850581169,0.1057579517364502,0.08253329992294312,0.002242026850581169,0.1057579517364502,0.08253329992294312,
,,,,,,,,,,,,,,,,,,,,,,,,,,0.0015512993559241295,0.07906540483236313,0.07703544944524765,0.0015512993559241295,0.07906540483236313,0.07703544944524765,
,,,,,,,,,,,,,,,,,,,,,,,,,,0.001583627425134182,0.06890477985143661,0.06647076457738876,0.001583627425134182,0.06890477985143661,0.06647076457738876,
,,,,,,,,,,,,,,,,,,,,,,,,,,0.001901357900351286,0.06573127955198288,0.06372334808111191,0.001901357900351286,0.06573127955198288,0.06372334808111191,
,,,,,,,,,,,,,,,,,,,,,,,,,,0.001118675572797656,0.060725193470716476,0.06015471741557121,0.001118675572797656,0.060725193470716476,0.06015471741557121,
,,,,,,,,,,,,,,,,,,,,,,,,,,0.0011915245559066534,0.05816703289747238,0.05714719742536545,0.0011915245559066534,0.05816703289747238,0.05714719742536545,
,,,,,,,,,,,,,,,,,,,,,,,,,,,,,,,,-1.79
4632952000.0,72.98,-1.1299999952316284,11990521856.0,16.834431745416865,64.0,-0.006446794141083956,266240.0,633.243860244751,6.271025365656158e-15,0.0,1.9512321949005127,-0.01951233483850956,0.022731643170118332,-0.019512321799993515,-1.30385160446167e-08,0.0,0.034273333847522736,0.21047432720661163,0.844339398741151,-0.16659201681613922,0.48479074239730835,-0.1323186755180359,0.5334696769714355,243.3108561038971,0.9979007244110107,,,,,,,
4632952000.0,74.86,-0.6200000047683716,12041169408.0,1755.4628912959645,65.0,-0.0038821003399789333,270336.0,635.5771479606628,5.5528498466017595e-15,0.0,2.0289971828460693,-0.020289970561861992,0.02810778096318245,-0.020289970561861992,0.0,0.0,0.04972009360790253,0.23185467720031738,0.8363705482925798,-0.18095265328884125,0.5546084642410278,-0.13123254477977753,0.5731722116470337,2.3332877159118652,0.9980661869049072,,,,,,,
4632952000.0,77.89,-0.8500000238418579,12041169408.0,1733.7431763870052,66.0,-0.009194683283567429,274432.0,637.9396662712097,5.783568068906675e-15,0.0,1.996503472328186,-0.01996503584086895,0.034319546073675156,-0.0199650339782238,-1.862645149230957e-09,0.0,0.03302156925201416,0.2599329948425293,0.8962970198179547,-0.3443455696105957,0.7434202432632446,-0.31132400035858154,0.8071715235710144,2.362518310546875,0.9979546070098877,,,,,,,
4632952000.0,76.95,-1.1299999952316284,12041169408.0,1784.142753277245,67.0,-0.005579936783760786,278528.0,640.2354466915131,6.0663279954908944e-15,0.0,1.9995228052139282,-0.01999523863196373,0.03587745130062103,-0.019995227456092834,-1.1175870895385742e-08,0.0,0.012528819963335991,0.2676105499267578,0.8670650821463117,-0.27283596992492676,0.656796932220459,-0.2603071928024292,0.7339791655540466,2.2957804203033447,0.9977333545684814,,,,,,,
4632952000.0,74.45,-1.0199999809265137,12041169408.0,1706.4167304011878,68.0,-0.005727400071918964,282624.0,642.6357982158661,5.447031714567174e-15,0.0,2.1079437732696533,-0.021079443395137787,0.03192197531461716,-0.02107943780720234,-6.51925802230835e-09,0.0,0.021627245470881462,0.2517770826816559,0.8433190018342119,-0.2212253212928772,0.5696520209312439,-0.19959807395935059,0.6360744833946228,2.4003515243530273,0.9978349208831787,,,,,,,
4632952000.0,75.75,-0.8899999856948853,12041169408.0,1793.4817387092262,69.0,-0.006268510594964027,286720.0,644.9196240901947,5.455705331947058e-15,0.0,2.116567373275757,-0.021165676414966583,0.022579988464713097,-0.021165672689676285,-3.725290298461914e-09,0.0,0.0154087133705616,0.21197527647018433,0.9037093504500298,-0.22531791031360626,0.6047585010528564,-0.20990920066833496,0.6831138730049133,2.2838258743286133,0.9980168342590332,,,,,,,
4632952000.0,75.71,-0.9300000071525574,12041169408.0,1714.718322333967,70.0,-0.0074595799669623375,290816.0,647.3083546161652,5.0411064211886014e-15,0.0,2.18569278717041,-0.021856924518942833,0.038369160145521164,-0.02185692824423313,3.725290298461914e-09,0.0,0.008483020588755608,0.27692073583602905,0.8726831399619243,-0.2361215353012085,0.6923387050628662,-0.22763851284980774,0.7760907411575317,2.388730525970459,0.997917890548706,,,,,,,
4632952000.0,75.35,-1.1299999952316284,12041169408.0,1777.9110549240024,71.0,-0.0069527337327599525,294912.0,649.6121819019318,5.108760636751697e-15,0.0,2.229133367538452,-0.022291332483291626,0.028230736032128334,-0.022291332483291626,0.0,0.0,0.027454812079668045,0.23605361580848694,0.9176217378038467,-0.3214995265007019,0.7733931541442871,-0.29404473304748535,0.8224402070045471,2.3038272857666016,0.9980580806732178,,,,,,,
4632952000.0,75.24,-1.1799999475479126,12041169408.0,1658.4092301698406,72.0,-0.009586043655872345,299008.0,652.0820186138153,5.2284565565940966e-15,0.0,2.2689623832702637,-0.022689616307616234,0.04697015509009361,-0.02268962375819683,6.984919309616089e-09,0.0,0.017712347209453583,0.3060219883918762,0.8823668497852214,-0.3577871322631836,0.8185911774635315,-0.3400747776031494,0.8922524452209473,2.469836711883545,0.9979591369628906,,,,,,,
4632952000.0,74.71,-1.3200000524520874,12041169408.0,1789.8499300463395,73.0,-0.010396093130111694,303104.0,654.3704786300659,5.431419203283383e-15,0.0,2.298661947250366,-0.022986633703112602,0.021920178085565567,-0.02298661880195141,-1.4901161193847656e-08,0.0,0.008231176994740963,0.20924457907676697,0.9379066359961,-0.32512062788009644,0.8044966459274292,-0.3168894648551941,0.8397144675254822,2.2884600162506104,0.9977748394012451,,,,,,,
4632952000.0,74.95,-1.6100000143051147,12041169408.0,1739.9659948503502,74.0,-0.012521300464868546,307200.0,656.724547624588,5.339478859056612e-15,0.0,2.3090991973876953,-0.02309100702404976,0.03945662081241608,-0.023090992122888565,-1.4901161193847656e-08,0.0,0.01664716750383377,0.2804555296897888,0.8821359177369271,-0.31788262724876404,0.8199679851531982,-0.3012354373931885,0.8169082999229431,2.3540689945220947,0.9978899955749512,,,,,,,
4632952000.0,76.56,-1.3300000429153442,12041169408.0,1757.425479324059,75.0,-0.007515518460422754,311296.0,659.0552296638489,5.266620473065586e-15,0.0,2.297830581665039,-0.022978294640779495,0.030205830931663513,-0.02297830581665039,1.1175870895385742e-08,0.0,0.038256920874118805,0.24282188713550568,0.8985850703263206,-0.19636714458465576,0.7362169027328491,-0.15811021625995636,0.7624947428703308,2.3306820392608643,0.997652530670166,,,,,,,
4632952000.0,74.62,-1.0299999713897705,12041169408.0,1704.9835205835652,76.0,-0.007525160908699036,315392.0,661.4575989246368,5.1573328940790475e-15,0.0,2.285640239715576,-0.022856399416923523,0.03349915146827698,-0.022856401279568672,2.7939677238464355e-09,0.0,0.016375862061977386,0.25835326313972473,0.8959731199026841,-0.24630780518054962,0.7759199738502502,-0.22993195056915283,0.8010160326957703,2.402369260787964,0.9979870319366455,,,,,,,
4632952000.0,74.5,-1.2200000286102295,12041169408.0,1804.8803563226554,77.0,-0.007662089075893164,319488.0,663.7270014286041,5.8321403262340255e-15,0.0,2.287102699279785,-0.022871023043990135,0.036661114543676376,-0.022871026769280434,3.725290298461914e-09,0.0,0.026164187118411064,0.26954662799835205,0.8957626821120107,-0.24818895757198334,0.8030213117599487,-0.22202476859092712,0.8348767161369324,2.269402503967285,0.9978065490722656,,,,,,,
4632952000.0,75.69,-0.8999999761581421,12041169408.0,1794.5029073153082,78.0,-0.005826915614306927,323584.0,666.009527683258,6.30225038822374e-15,0.0,2.283193349838257,-0.022831937298178673,0.04066493362188339,-0.022831933572888374,-3.725290298461914e-09,0.0,0.0467388853430748,0.2813621759414673,0.8773989344827963,-0.24388834834098816,0.8488753437995911,-0.19714945554733276,0.8035604953765869,2.2825262546539307,0.9975342750549316,,,,,,,
4632952000.0,77.33,-0.8799999952316284,12041169408.0,1740.4585002340723,79.0,-0.006500487215816975,327680.0,668.3629305362701,5.771425004574837e-15,0.0,2.264859914779663,-0.02264859527349472,0.03459818661212921,-0.02264859899878502,3.725290298461914e-09,0.0,0.027135252952575684,0.2616806626319885,0.9031985843229566,-0.2496911734342575,0.8356055617332458,-0.22255592048168182,0.841067373752594,2.353402853012085,0.9978361129760742,,,,,,,
4632952000.0,77.41,-0.8199999928474426,12041169408.0,1808.6667786125524,80.0,-0.004120500758290291,331776.0,670.6275820732117,6.151329445813758e-15,0.0,2.305269956588745,-0.023052699863910675,0.03168968856334686,-0.023052699863910675,4.656612873077393e-10,0.0,-0.006970375310629606,0.25168684124946594,0.8092569262546536,-0.04367012530565262,0.5193203091621399,-0.050640497356653214,0.5762833952903748,2.2646515369415283,0.9977085590362549,,,,,,,
4632952000.0,76.61,-0.7599999904632568,12041169408.0,1747.8314906694795,81.0,-0.007062045857310295,335872.0,672.9710574150085,6.347353198599137e-15,0.0,2.2745516300201416,-0.022745516151189804,0.023373857140541077,-0.022745516151189804,-9.313225746154785e-10,0.0,-0.0012982003390789032,0.21623468399047852,0.9065934804144344,-0.13801351189613342,0.664866030216217,-0.13931170105934143,0.7075167894363403,2.343475341796875,0.9980506896972656,,,,,,,
4632952000.0,76.99,-0.9900000095367432,12041169408.0,1741.4754163734199,82.0,-0.006272071972489357,339968.0,675.3230860233307,6.420211584590163e-15,0.0,2.3321945667266846,-0.02332194894552231,0.02093508094549179,-0.02332194522023201,-4.6566128730773926e-09,0.0,0.0022073104046285152,0.20463508367538452,0.9262369757237053,-0.12087932974100113,0.7053117752075195,-0.11867202818393707,0.7534608840942383,2.3520286083221436,0.9981787204742432,,,,,,,
4632952000.0,75.96,-0.6100000143051147,12041169408.0,1809.318036089324,83.0,-0.0029447930864989758,344064.0,677.5869224071503,6.3091892821276474e-15,0.0,2.3748302459716797,-0.023748302832245827,0.0317959301173687,-0.023748302832245827,0.0,0.0,-0.00779246399179101,0.2520846128463745,0.8075496998441389,-0.023567840456962585,0.4798598289489746,-0.03136030584573746,0.5746283531188965,2.26383638381958,0.9976925849914551,,,,,,,
4632952000.0,77.16,-0.5099999904632568,12041169408.0,1770.6565129014643,84.0,-0.0042928969487547874,348160.0,679.9001886844635,6.127043317150083e-15,0.0,2.441091537475586,-0.024410907179117203,0.030412502586841583,-0.0244109146296978,7.450580596923828e-09,0.0,0.005005131475627422,0.24660657346248627,0.875872428750695,-0.13591286540031433,0.6838230490684509,-0.13090772926807404,0.6999557018280029,2.3132662773132324,0.9978213310241699,,,,,,,
4632952000.0,78.82,-0.8100000023841858,12041169408.0,1704.8307395826407,85.0,-0.007796951569616795,352256.0,682.3027732372284,5.901529265273098e-15,0.0,2.4651150703430176,-0.02465115487575531,0.032994724810123444,-0.024651149287819862,-5.587935447692871e-09,0.0,-0.019502097740769386,0.2561740279197693,0.8145130943272826,-0.06908334791660309,0.48121464252471924,-0.08858543634414673,0.5948103070259094,2.4025845527648926,0.9978201389312744,,,,,,,
4632952000.0,77.84,-0.9100000262260437,12041169408.0,1787.401179423256,86.0,-0.004852117504924536,356352.0,684.5943684577942,6.163472510145596e-15,0.0,2.5461182594299316,-0.02546118199825287,0.04424455016851425,-0.02546118199825287,0.0,0.0,-0.04200625792145729,0.2945263087749481,0.8055578105322633,-0.07589414715766907,0.5462533831596375,-0.11790040135383606,0.6679267883300781,2.291595220565796,0.9976885318756104,,,,,,,
4632952000.0,75.9,-0.7300000190734863,12041169408.0,1798.0913485505212,87.0,-0.005131827667355537,360448.0,686.8723394870758,6.354292092503044e-15,0.0,2.5217931270599365,-0.025217922404408455,0.05770628899335861,-0.025217929854989052,7.450580596923828e-09,0.0,-0.026258882135152817,0.3387492895126343,0.7349185221551572,-0.06535883247852325,0.5458129644393921,-0.09161772578954697,0.657943606376648,2.277971029281616,0.9977140426635742,,,,,,,
4632952000.0,73.91,-0.8999999761581421,12041169408.0,1724.2149552398218,88.0,-0.00622613076120615,364544.0,689.2479133605957,6.957975862142973e-15,0.0,2.5639700889587402,-0.025639688596129417,0.05723991245031357,-0.025639699772000313,1.1175870895385742e-08,0.0,-0.061270542442798615,0.3327954113483429,0.7072762750181907,-0.049816474318504333,0.479038804769516,-0.11108701676130295,0.6151037216186523,2.3755738735198975,0.9979884624481201,,,,,,,
4632952000.0,76.28,-0.7900000214576721,12041169408.0,1683.9644376937235,89.0,-0.0066468073055148125,368640.0,691.6802687644958,5.708974959439672e-15,0.0,2.5737318992614746,-0.025737326592206955,0.038827333599328995,-0.025737319141626358,-7.450580596923828e-09,0.0,-0.012613187544047832,0.278414249420166,0.8453821019510058,-0.125543013215065,0.6265711784362793,-0.13815617561340332,0.7080461978912354,2.4323554039001465,0.9978818893432617,,,,,,,
4632952000.0,79.9,-1.2000000476837158,12041169408.0,1756.1368848593065,90.0,-0.011528467759490013,372736.0,694.0126609802246,6.591949208711867e-15,0.0,2.608339309692383,-0.02608337812125683,0.13722272217273712,-0.026083393022418022,1.4901161193847656e-08,0.0,-0.11886182427406311,0.5102753043174744,0.5861153791223614,-0.19177758693695068,0.627979576587677,-0.3106394112110138,0.7931675314903259,2.3323922157287598,0.997938871383667,,,,,,,
4632952000.0,78.53,-1.649999976158142,12041169408.0,1758.8954854911005,91.0,-0.009641802869737148,376832.0,696.3413951396942,6.413272690686256e-15,0.0,2.584312915802002,-0.025843121111392975,0.08067570626735687,-0.025843128561973572,7.450580596923828e-09,0.0,-0.027516614645719528,0.4007910490036011,0.7797868724793505,-0.26766541600227356,0.7562347650527954,-0.2951820492744446,0.8540757298469543,2.3287341594696045,0.9980974197387695,,,,,,,
4632952000.0,78.38,-0.949999988079071,12041169408.0,1729.9726881754862,92.0,-0.00543868076056242,380928.0,698.709062576294,7.483597075363946e-15,0.0,2.573413372039795,-0.025734134018421173,0.07188829779624939,-0.025734134018421173,0.0,0.0,0.004206830635666847,0.3792017996311188,0.6141305717139857,-0.10550616681575775,0.5239537954330444,-0.10129933804273605,0.6104500889778137,2.3676674365997314,0.9978270530700684,,,,,,,
4632952000.0,78.65,-0.6000000238418579,12041169408.0,1750.5822344304243,93.0,-0.004629945382475853,385024.0,701.0488555431366,7.200837148779726e-15,0.0,2.5380258560180664,-0.025380264967679977,0.06025581434369087,-0.02538025751709938,-6.51925802230835e-09,0.0,-0.0016391221433877945,0.3471863567829132,0.7763267799876626,-0.19651730358600616,0.6272192001342773,-0.1981564313173294,0.7341007590293884,2.3397929668426514,0.9976472854614258,,,,,,,
4632952000.0,75.26,-0.6499999761581421,12041169408.0,1752.0738658753787,94.0,-0.0025908774696290493,389120.0,703.3866565227509,7.889522368742519e-15,0.0,2.473918914794922,-0.024739189073443413,0.09208393096923828,-0.024739189073443413,0.0,0.0,0.073238305747509,0.4229038655757904,0.6886127757044349,-0.30530038475990295,0.7503238320350647,-0.23206207156181335,0.7578639984130859,2.337800979614258,0.9979822635650635,,,,,,,
4632952000.0,73.92,-0.28999999165534973,12041169408.0,1732.9124937083097,95.0,-0.0030063465237617493,393216.0,705.7503073215485,9.896597430447684e-15,0.0,2.35815167427063,-0.02358151599764824,0.03838741034269333,-0.02358151599764824,-9.313225746154785e-10,0.0,0.05041384696960449,0.27249109745025635,0.8646856997241276,-0.28899797797203064,0.7324287295341492,-0.23858413100242615,0.7407650351524353,2.3636507987976074,0.9978265762329102,,,,,,,
,,,,,,,,,,,,,,,,,,,,,,,,,,0.022298062220215797,0.078432098031044,0.03992287814617157,0.022298062220215797,0.078432098031044,0.03992287814617157,
,,,,,,,,,,,,,,,,,,,,,,,,,,0.005534573923796415,0.04066858068108559,0.03662600368261337,0.005534573923796415,0.04066858068108559,0.03662600368261337,
,,,,,,,,,,,,,,,,,,,,,,,,,,0.004078749101608992,0.03596394136548042,0.034071557223796844,0.004078749101608992,0.03596394136548042,0.034071557223796844,
,,,,,,,,,,,,,,,,,,,,,,,,,,0.0032526131253689528,0.03407972306013107,0.032959990203380585,0.0032526131253689528,0.03407972306013107,0.032959990203380585,
,,,,,,,,,,,,,,,,,,,,,,,,,,0.0030631034169346094,0.0324920192360878,0.03181403502821922,0.0030631034169346094,0.0324920192360878,0.03181403502821922,
,,,,,,,,,,,,,,,,,,,,,,,,,,0.0030665621161460876,0.03224281966686249,0.031785354018211365,0.0030665621161460876,0.03224281966686249,0.031785354018211365,
,,,,,,,,,,,,,,,,,,,,,,,,,,,,,,,,-1.25
4632972000.0,75.98,-0.3100000023841858,11990521856.0,16.845688112431286,96.0,-0.004108609165996313,397312.0,948.8985819816589,7.729927808952652e-15,0.0,2.3011388778686523,-0.023011403158307076,0.04212155193090439,-0.02301138825714588,-1.4901161193847656e-08,0.0,0.031390219926834106,0.28857943415641785,0.8321747061625654,-0.2104385495185852,0.6728556156158447,-0.1790483444929123,0.7044280767440796,243.14827466011047,0.9980106353759766,,,,,,,
4632972000.0,78.99,-0.5699999928474426,12041169408.0,1725.1655045811124,97.0,-0.005903545767068863,401408.0,951.2728469371796,7.221653830491448e-15,0.0,2.3051772117614746,-0.023051772266626358,0.021931078284978867,-0.023051772266626358,0.0,0.0,0.0018450859934091568,0.2094503790140152,0.900996593433617,-0.1553248167037964,0.6231333613395691,-0.15347974002361298,0.6656655669212341,2.37426495552063,0.997840166091919,,,,,,,
4632972000.0,77.73,-0.8899999856948853,12041169408.0,1749.637154673176,98.0,-0.003989765420556068,405504.0,953.61390376091,7.825337600131377e-15,0.0,2.31888484954834,-0.023188859224319458,0.038425859063863754,-0.023188848048448563,-1.1175870895385742e-08,0.0,0.03586162254214287,0.2749256491661072,0.8085068710037018,-0.19081935286521912,0.5847957134246826,-0.15495774149894714,0.6282589435577393,2.3410568237304688,0.998070478439331,,,,,,,
4632972000.0,79.11,-0.6700000166893005,12041169408.0,1777.148365192081,99.0,-0.004274742212146521,409600.0,955.9187197685242,8.085546121527898e-15,0.0,2.3317995071411133,-0.02331799454987049,0.043845802545547485,-0.02331799454987049,0.0,0.0,0.03591856360435486,0.29397714138031006,0.8216952476962175,-0.23583534359931946,0.6533786058425903,-0.1999167799949646,0.6961969137191772,2.3048160076141357,0.9981460571289062,,,,,,,
4632972000.0,79.9,-0.27000001072883606,12041169408.0,1747.744185679803,100.0,0.0008294011931866407,413696.0,958.2623121738434,7.114100974980886e-15,0.0,2.363816738128662,-0.023638151586055756,0.029088076204061508,-0.02363816648721695,1.4901161193847656e-08,0.0,0.03441886231303215,0.23875805735588074,0.7751024507581492,-0.0076923668384552,0.4097767174243927,0.0267264936119318,0.5034608244895935,2.343592405319214,0.9978210926055908,,,,,,,
4632972000.0,76.65,-0.11999999731779099,12041169408.0,1773.1073286138871,101.0,-0.002493307925760746,417792.0,960.5723810195923,7.797582024515748e-15,0.0,2.410935640335083,-0.0241093672811985,0.05832166224718094,-0.024109356105327606,-1.1874362826347351e-08,0.0,0.02110331691801548,0.3409198522567749,0.6725773415118159,-0.08463585376739502,0.4706202447414398,-0.06353253126144409,0.595796525478363,2.3100688457489014,0.9976847171783447,,,,,,,
4632972000.0,73.69,-0.27000001072883606,12041169408.0,1779.8126255357608,102.0,-0.003190415445715189,421888.0,962.8737468719482,7.884318198314588e-15,0.0,2.4581246376037598,-0.024581240490078926,0.05286669731140137,-0.024581246078014374,5.587935447692871e-09,0.0,0.014864418655633926,0.3248664438724518,0.6832013668040395,-0.04849793016910553,0.44581443071365356,-0.0336335152387619,0.5771825909614563,2.301365852355957,0.9980916976928711,,,,,,,
4632972000.0,75.29,-0.3400000035762787,12041169408.0,1777.4708697930596,103.0,-0.0022239196114242077,425984.0,965.1781446933746,8.574738141753357e-15,0.0,2.418715476989746,-0.024187151342630386,0.07554332911968231,-0.024187155067920685,3.725290298461914e-09,0.0,-0.0064166998490691185,0.3886931538581848,0.5867291869907565,-0.04724597558379173,0.5015608668327332,-0.05366267263889313,0.6046296954154968,2.3043978214263916,0.9980132579803467,,,,,,,
4632972000.0,76.51,-0.1599999964237213,12041169408.0,1722.7860835930653,104.0,-0.001530759735032916,430080.0,967.5556888580322,8.543513119185775e-15,0.0,2.468942403793335,-0.024689417332410812,0.0676826536655426,-0.02468942292034626,5.587935447692871e-09,0.0,0.0010231519117951393,0.3679637610912323,0.6658572636836564,-0.07612179219722748,0.5157930254936218,-0.07509864866733551,0.6365595459938049,2.3775441646575928,0.9981632232666016,,,,,,,
4632972000.0,76.26,-0.23000000417232513,12041169408.0,1790.8542715118365,105.0,-0.0011147933546453714,434176.0,969.8428654670715,9.68149171942656e-15,0.0,2.493150234222412,-0.024931497871875763,0.07406531274318695,-0.02493150159716606,3.725290298461914e-09,0.0,0.036100033670663834,0.3832274377346039,0.5698810405013627,-0.011583825573325157,0.5215244293212891,0.02451620250940323,0.5843355059623718,2.2871766090393066,0.9978165626525879,,,,,,,
4632972000.0,78.97,-0.5600000023841858,12041169408.0,1675.403522158014,106.0,-0.009890048764646053,438272.0,972.2876496315002,9.42648736845797e-15,0.0,2.493948221206665,-0.02493946999311447,0.15310169756412506,-0.024939481168985367,1.1175870895385742e-08,0.0,-0.120646633207798,0.540110170841217,0.5859681061232593,-0.02428334765136242,0.556809663772583,-0.14492997527122498,0.8393932580947876,2.444784164428711,0.9980330467224121,,,,,,,
4632972000.0,78.21,-0.7300000190734863,12041169408.0,1746.644463440562,107.0,0.0008376284968107939,442368.0,974.6327176094055,9.240871956528451e-15,0.0,2.458547592163086,-0.024585483595728874,0.04446268081665039,-0.024585476145148277,-7.450580596923828e-09,0.0,0.014358708634972572,0.29789403080940247,0.5619727793425121,0.056492939591407776,0.383750319480896,0.0708516538143158,0.450102299451828,2.3450679779052734,0.9978334903717041,,,,,,,
4632972000.0,78.08,-0.12999999523162842,12041169408.0,1731.0574407118388,108.0,-0.0015371327754110098,446464.0,976.9989013671875,9.889658536543777e-15,0.0,2.448000192642212,-0.024480003863573074,0.06308375298976898,-0.024480002000927925,-2.7939677238464355e-09,0.0,0.03972412645816803,0.3530154824256897,0.6167884586287886,0.029702674597501755,0.44801172614097595,0.06942680478096008,0.5702620148658752,2.3661837577819824,0.9979062080383301,,,,,,,
4632972000.0,79.42,-0.09000000357627869,12041169408.0,1778.0174089721636,109.0,0.000140014395583421,450560.0,979.3025908470154,1.077957167971988e-14,0.0,2.405895709991455,-0.024058952927589417,0.058629728853702545,-0.024058956652879715,3.725290298461914e-09,0.0,0.01092727854847908,0.34229907393455505,0.5027382286624063,0.034924037754535675,0.389029324054718,0.04585131257772446,0.485414981842041,2.303689479827881,0.9978609085083008,,,,,,,
4632972000.0,79.57,-0.10000000149011612,12041169408.0,1767.5351713369869,110.0,-0.0007012310670688748,454656.0,981.6199421882629,1.0439565878428425e-14,0.0,2.3393330574035645,-0.023393334820866585,0.05657487362623215,-0.023393329232931137,-5.587935447692871e-09,0.0,-0.009065071120858192,0.33629629015922546,0.6978804882768588,0.06350230425596237,0.4402332901954651,0.05443723499774933,0.6118326783180237,2.3173513412475586,0.9983031749725342,,,,,,,
4632972000.0,80.96,-0.05999999865889549,12041169408.0,1705.440673541028,111.0,0.0005621464806608856,458752.0,984.0216674804688,1.0757020274532181e-14,0.0,2.313952922821045,-0.023139532655477524,0.05128830671310425,-0.023139528930187225,-3.725290298461914e-09,0.0,-0.004241283051669598,0.3202868402004242,0.6371163361968443,0.06740589439868927,0.4048123359680176,0.0631646066904068,0.5316861867904663,2.4017252922058105,0.9978539943695068,,,,,,,
4632972000.0,77.9,-0.11999999731779099,12041169408.0,1738.2178622772587,112.0,-0.002393751870840788,462848.0,986.3781039714813,1.1098760799299612e-14,0.0,2.281914234161377,-0.022819140926003456,0.058873336762189865,-0.022819140926003456,0.0,0.0,-0.01725880801677704,0.3427498936653137,0.6111684123300039,0.05246153846383095,0.3820440173149109,0.03520272672176361,0.5496630668640137,2.3564364910125732,0.9979052543640137,,,,,,,
4632972000.0,79.05,0.0,12041169408.0,1754.00398707132,113.0,0.002258011605590582,466944.0,988.7133324146271,1.1633055629900468e-14,0.0,2.209761619567871,-0.02209760621190071,0.04938755929470062,-0.022097615525126457,1.0244548320770264e-08,0.0,0.046140074729919434,0.3109177052974701,0.4241854217030284,0.08721638470888138,0.3917183578014374,0.13335645198822021,0.4097360074520111,2.335228443145752,0.9979562759399414,,,,,,,
4632972000.0,83.67,0.20000000298023224,12041169408.0,1793.0661857288378,114.0,0.0007071337895467877,471040.0,990.9976875782013,1.222459633520856e-14,0.0,2.2283105850219727,-0.022283095866441727,0.05248254910111427,-0.022283105179667473,9.313225746154785e-09,0.0,0.008735381998121738,0.32390496134757996,0.6007138572179285,0.04459222033619881,0.4203645586967468,0.05332760140299797,0.5125963091850281,2.2843551635742188,0.9978938102722168,,,,,,,
4632972000.0,76.96,-0.23999999463558197,12041169408.0,1772.3516793417944,115.0,-0.004816478118300438,475136.0,993.3087413311005,1.2901138490839514e-14,0.0,2.152230739593506,-0.021522320806980133,0.042019955813884735,-0.02152230776846409,-1.30385160446167e-08,0.0,-0.029841944575309753,0.2883915305137634,0.7864385593298711,0.0069452812895178795,0.4853723347187042,-0.022896658629179,0.6240524053573608,2.31105375289917,0.998650074005127,,,,,,,
4632972000.0,76.35,-0.23000000417232513,12041169408.0,1812.361856096318,116.0,0.0025557742919772863,479232.0,995.5687756538391,1.2673889715486553e-14,0.0,2.2383108139038086,-0.022383110597729683,0.034609925001859665,-0.022383106872439384,-3.725290298461914e-09,0.0,0.012714657932519913,0.2628213167190552,0.7606859559969122,0.05282606929540634,0.45502087473869324,0.06554072350263596,0.5372501611709595,2.2600343227386475,0.9979259967803955,,,,,,,
4632972000.0,81.4,0.46000000834465027,12041169408.0,1741.915259942782,117.0,0.0035558114759624004,483328.0,997.9202103614807,1.2741543931049648e-14,0.0,2.2574005126953125,-0.02257399819791317,0.051982052624225616,-0.022574003785848618,5.587935447692871e-09,0.0,0.025219537317752838,0.32148611545562744,0.6602643476562866,0.11289635300636292,0.3947007954120636,0.13811588287353516,0.5515586137771606,2.3514347076416016,0.997952938079834,,,,,,,
4632972000.0,79.42,0.4300000071525574,12041169408.0,1705.2052116947,118.0,0.001994858030229807,487424.0,1000.32226729393,1.289766904388756e-14,0.0,2.316455364227295,-0.02316455729305744,0.03807965666055679,-0.023164553567767143,-3.725290298461914e-09,0.0,0.02032618038356304,0.2752538025379181,0.5811677403630222,0.10009440779685974,0.3349260091781616,0.12042059004306793,0.42531752586364746,2.402056932449341,0.9980626106262207,,,,,,,
4632972000.0,80.66,0.5099999904632568,12041169408.0,1741.506485944628,119.0,0.003425001632422209,491520.0,1002.6742539405823,1.3983605939849042e-14,0.0,2.3319501876831055,-0.023319516330957413,0.0658450797200203,-0.02331950142979622,-1.4901161193847656e-08,0.0,0.04011429473757744,0.3607114851474762,0.5056581053534313,0.11225391179323196,0.45530158281326294,0.1523682177066803,0.5130340456962585,2.3519866466522217,0.9977052211761475,,,,,,,
4632972000.0,85.13,0.25,12041169408.0,1771.2677139976786,120.0,0.001856861636042595,495616.0,1004.9867219924927,1.387605308433848e-14,0.0,2.4587619304656982,-0.02458762563765049,0.09771113097667694,-0.024587618187069893,-7.450580596923828e-09,0.0,-0.016855206340551376,0.4417983889579773,0.4580683554434196,0.17397446930408478,0.3787032961845398,0.1571192592382431,0.6001390814781189,2.3124680519104004,0.9984283447265625,,,,,,,
4632972000.0,81.39,0.25,12041169408.0,1771.219503605253,121.0,0.004862074740231037,499712.0,1007.299252986908,1.3910747553858016e-14,0.0,2.4611191749572754,-0.024611184373497963,0.07482410967350006,-0.02461119182407856,7.450580596923828e-09,0.0,0.023010466247797012,0.38620609045028687,0.5088900126113176,0.2021840214729309,0.3962279260158539,0.22519448399543762,0.5510991811752319,2.312530994415283,0.9981245994567871,,,,,,,
4632972000.0,82.54,0.44999998807907104,12041169408.0,1724.744640375455,122.0,0.0007162999827414751,503808.0,1009.6740972995758,1.2833484275276419e-14,0.0,2.4070990085601807,-0.024070980027318,0.054924506694078445,-0.024070989340543747,9.313225746154785e-09,0.0,-0.018833428621292114,0.3309396505355835,0.47602639512956113,0.19836056232452393,0.4177558422088623,0.1795271337032318,0.4571872353553772,2.3748443126678467,0.9978435039520264,,,,,,,
4632972000.0,83.58,0.5600000023841858,12041169408.0,1746.524784066693,123.0,0.00516015850007534,507904.0,1012.0193259716034,1.3397269404968881e-14,0.0,2.4334232807159424,-0.02433423511683941,0.07672008126974106,-0.02433423139154911,-3.725290298461914e-09,0.0,0.03948158025741577,0.3897671699523926,0.5237506582494046,0.21342024207115173,0.4659544825553894,0.2529017925262451,0.5647913813591003,2.345228672027588,0.9980790615081787,,,,,,,
4632972000.0,78.28,0.41999998688697815,12041169408.0,1734.86980389662,124.0,0.002154567278921604,512000.0,1014.3803100585938,1.2373782554142565e-14,0.0,2.376960039138794,-0.023769598454236984,0.047240931540727615,-0.023769600316882133,9.313225746154785e-10,0.0,-0.009047476574778557,0.3072833716869354,0.524675546171361,0.2633028030395508,0.326028048992157,0.2542552947998047,0.44570136070251465,2.3609840869903564,0.997849702835083,,,,,,,
4632972000.0,77.55,0.25,12041169408.0,1815.618153360663,125.0,0.001583731616847217,516096.0,1016.6362910270691,1.1546319456101628e-14,0.0,2.3726272583007812,-0.023726286366581917,0.03431595861911774,-0.023726271465420723,-1.4435499906539917e-08,0.0,-0.02420782670378685,0.26088792085647583,0.7023304382393133,0.22249868512153625,0.4017395079135895,0.1982908546924591,0.4781748950481415,2.255980968475342,0.9978578090667725,,,,,,,
4632972000.0,79.59,0.4099999964237213,12041169408.0,1744.9754060196626,126.0,0.004183948040008545,520192.0,1018.9836020469666,1.2998283005494216e-14,0.0,2.3896842002868652,-0.02389683574438095,0.03448982909321785,-0.0238968413323164,5.587935447692871e-09,0.0,0.0021263905800879,0.26266324520111084,0.6837344236059637,0.254192978143692,0.36075910925865173,0.2563193738460541,0.46706071496009827,2.347311019897461,0.9979064464569092,,,,,,,
4632972000.0,78.71,0.3700000047683716,12041169408.0,1767.3007961658127,127.0,0.0021672220900654793,524288.0,1021.3012607097626,1.2129186544029835e-14,0.0,2.3835043907165527,-0.023835044354200363,0.055059581995010376,-0.023835042491555214,-1.3969838619232178e-09,0.0,-0.0352625846862793,0.3300034999847412,0.6599771889412388,0.21253645420074463,0.4146375358104706,0.17727386951446533,0.5659323334693909,2.3176586627960205,0.9979643821716309,,,,,,,
,,,,,,,,,,,,,,,,,,,,,,,,,,0.011752288788557053,0.07262333482503891,0.06428973376750946,0.011752288788557053,0.07262333482503891,0.06428973376750946,
,,,,,,,,,,,,,,,,,,,,,,,,,,0.005673299077898264,0.05571114644408226,0.05311097949743271,0.005673299077898264,0.05571114644408226,0.05311097949743271,
,,,,,,,,,,,,,,,,,,,,,,,,,,0.004680027719587088,0.05150133743882179,0.05105583742260933,0.004680027719587088,0.05150133743882179,0.05105583742260933,
,,,,,,,,,,,,,,,,,,,,,,,,,,0.004593805409967899,0.049556467682123184,0.04944147169589996,0.004593805409967899,0.049556467682123184,0.04944147169589996,
,,,,,,,,,,,,,,,,,,,,,,,,,,0.003787905676290393,0.047324057668447495,0.04716693237423897,0.003787905676290393,0.047324057668447495,0.04716693237423897,
,,,,,,,,,,,,,,,,,,,,,,,,,,0.0036508231423795223,0.04571114853024483,0.04556949809193611,0.0036508231423795223,0.04571114853024483,0.04556949809193611,
,,,,,,,,,,,,,,,,,,,,,,,,,,,,,,,,-0.57
4633228000.0,77.75,0.46000000834465027,11990521856.0,16.821615306558247,128.0,0.005498566664755344,528384.0,1264.7974960803986,1.0087417012805133e-14,0.0,2.3791651725769043,-0.02379164658486843,0.04461951553821564,-0.02379165031015873,4.190951585769653e-09,0.0,0.07364793121814728,0.2895435690879822,0.707458795638036,0.07880257070064545,0.5105406641960144,0.15245048701763153,0.5353285670280457,243.496235370636,0.9983265399932861,,,,,,,
4633228000.0,78.65,0.6100000143051147,12041169408.0,1783.3084364418014,129.0,0.0014492763439193368,532480.0,1267.0943505764008,9.965986369486757e-15,0.0,2.429291248321533,-0.02429291233420372,0.04477303847670555,-0.02429291233420372,0.0,0.0,0.04053262993693352,0.2965209186077118,0.8303217463853705,-0.01826399192214012,0.6651768088340759,0.022268634289503098,0.7198503613471985,2.2968544960021973,0.998054027557373,,,,,,,
4633228000.0,85.49,0.20000000298023224,12041169408.0,1795.0896072088337,130.0,0.00014521297998726368,536576.0,1269.3761308193207,1.0115172588420762e-14,0.0,2.4458961486816406,-0.02445896901190281,0.03375736624002457,-0.024458961561322212,-7.450580596923828e-09,0.0,7.693842053413391e-05,0.25986769795417786,0.6618813247870448,0.06641193479299545,0.39834147691726685,0.06648887693881989,0.44690755009651184,2.281780242919922,0.9982638359069824,,,,,,,
4633228000.0,82.34,0.05999999865889549,12041169408.0,1738.0574848174263,131.0,0.0013095206813886762,540672.0,1271.7327847480774,1.0408340855860843e-14,0.0,2.4424691200256348,-0.024424687027931213,0.041761185973882675,-0.024424690753221512,3.725290298461914e-09,0.0,0.03179740160703659,0.2872828543186188,0.7802674640731357,0.05092766508460045,0.5405170917510986,0.08272506296634674,0.6128618121147156,2.356653928756714,0.997952938079834,,,,,,,
4633228000.0,81.61,0.3700000047683716,12041169408.0,1721.1152174191811,132.0,0.0042226677760481834,544768.0,1274.1126370429993,1.049160758270773e-14,0.0,2.4882190227508545,-0.02488219365477562,0.07993479818105698,-0.02488218992948532,-3.725290298461914e-09,0.0,0.03960411995649338,0.39791929721832275,0.6459587590181399,0.060224950313568115,0.5919578075408936,0.09982907027006149,0.6687565445899963,2.379852294921875,0.997748613357544,,,,,,,
4633228000.0,85.7,0.10000000149011612,12041169408.0,1730.2633096079996,133.0,-0.0026241575833410025,548864.0,1276.479906797409,1.0351094981153608e-14,0.0,2.46046781539917,-0.024604666978120804,0.06677110493183136,-0.0246046781539917,1.1175870895385742e-08,0.0,-0.015869857743382454,0.3651340901851654,0.7600241161114154,-0.023280519992113113,0.6652824282646179,-0.03915037214756012,0.7453643083572388,2.36726975440979,0.9979414939880371,,,,,,,
4633228000.0,87.79,0.07999999821186066,12041169408.0,1699.5185897884865,134.0,0.0023331851698458195,552960.0,1278.8900010585785,1.1006820455072841e-14,0.0,2.498155117034912,-0.02498154528439045,0.0873447060585022,-0.024981550872325897,5.587935447692871e-09,0.0,0.004088449291884899,0.41798967123031616,0.6931016265174559,0.21209393441677094,0.5831845998764038,0.2161823809146881,0.7545156478881836,2.4100942611694336,0.9978954792022705,,,,,,,
4633228000.0,90.97,0.03999999910593033,12041169408.0,1734.6501411206189,135.0,0.000437849696027115,557056.0,1281.251284122467,1.0927023175177908e-14,0.0,2.46250057220459,-0.024625001475214958,0.09348824620246887,-0.024625005200505257,3.725290298461914e-09,0.0,-0.031003229320049286,0.4313475787639618,0.6590187029039933,0.24308696389198303,0.5504080653190613,0.21208372712135315,0.7386897206306458,2.36128306388855,0.9980161190032959,,,,,,,
4633228000.0,86.81,-0.11999999731779099,12041169408.0,1750.900521493079,136.0,-0.0030649877153337,561152.0,1283.5906517505646,1.020884765612351e-14,0.0,2.480644941329956,-0.024806449189782143,0.10166498273611069,-0.024806449189782143,0.0,0.0,-0.08373325318098068,0.44313275814056396,0.5981622308852056,0.17334267497062683,0.5265021920204163,0.08960941433906555,0.6990504264831543,2.339367628097534,0.9979743957519531,,,,,,,
4633228000.0,81.08,0.07000000029802322,12041169408.0,1757.9989750726536,137.0,0.003942752256989479,565248.0,1285.9205734729767,1.0397932515004982e-14,0.0,2.4715075492858887,-0.02471507340669632,0.05648532509803772,-0.02471507526934147,9.313225746154785e-10,0.0,-0.0029061725363135338,0.3361395299434662,0.7581582532198963,0.2816467881202698,0.5598859190940857,0.27874064445495605,0.6835242509841919,2.3299217224121094,0.9981389045715332,,,,,,,
4633228000.0,81.81,0.6800000071525574,12041169408.0,1699.9707978811355,138.0,0.00804043561220169,569344.0,1288.330026626587,1.1032841307212493e-14,0.0,2.4683279991149902,-0.024683285504579544,0.04134040325880051,-0.024683279916644096,-5.587935447692871e-09,0.0,0.014498253352940083,0.2872120141983032,0.7227122484029568,0.32014167308807373,0.4561929702758789,0.33463990688323975,0.5454277992248535,2.4094531536102295,0.9977700710296631,,,,,,,
4633228000.0,83.68,1.0,12041169408.0,1765.0429638153164,139.0,0.004391641356050968,573440.0,1290.650650024414,1.0812531425763439e-14,0.0,2.4484448432922363,-0.02448444813489914,0.05121346190571785,-0.02448444813489914,0.0,0.0,0.004902523010969162,0.3200435936450958,0.7177803551156332,0.21605409681797028,0.4980370104312897,0.22095662355422974,0.6024423241615295,2.3206233978271484,0.9979832172393799,,,,,,,
4633228000.0,82.41,0.699999988079071,12041169408.0,1763.6128164916095,140.0,0.004838782828301191,577536.0,1292.973155260086,1.1032841307212493e-14,0.0,2.493683338165283,-0.024936828762292862,0.03919732943177223,-0.02493683248758316,3.725290298461914e-09,0.0,0.023607350885868073,0.27902752161026,0.8058197438012117,0.2522483468055725,0.5602514743804932,0.2758557200431824,0.6332052946090698,2.322505235671997,0.9983851909637451,,,,,,,
4633228000.0,83.16,0.8500000238418579,12041169408.0,1725.1705284805932,141.0,0.006747763138264418,581632.0,1295.347413301468,1.0560996521746802e-14,0.0,2.502239227294922,-0.025022393092513084,0.06187816709280014,-0.025022391229867935,-1.862645149230957e-09,0.0,0.02391713857650757,0.3510190546512604,0.650054362737305,0.26081719994544983,0.4784725606441498,0.2847343385219574,0.5933765172958374,2.374258041381836,0.9977750778198242,,,,,,,
4633228000.0,83.14,0.5699999928474426,12041169408.0,1779.588255663935,142.0,0.0027909979689866304,585728.0,1297.6490693092346,1.1182027526146499e-14,0.0,2.4504077434539795,-0.024504080414772034,0.048197075724601746,-0.024504076689481735,-3.725290298461914e-09,0.0,-0.005745777860283852,0.310458779335022,0.6907552013587854,0.16311104595661163,0.4551886022090912,0.15736527740955353,0.5582809448242188,2.3016560077667236,0.9980671405792236,,,,,,,
4633228000.0,81.36,0.5400000214576721,12041169408.0,1731.8105767860213,143.0,0.008383382111787796,589824.0,1300.0142240524292,1.1454379111874857e-14,0.0,2.449789524078369,-0.024497879669070244,0.03640761226415634,-0.024497894570231438,1.4901161193847656e-08,0.0,0.061068348586559296,0.2628740072250366,0.8153622851931845,0.22048673033714294,0.5255585312843323,0.28155508637428284,0.6117690205574036,2.36515474319458,0.9982197284698486,,,,,,,
4633228000.0,81.97,0.9700000286102295,12041169408.0,1780.3463996002376,144.0,0.00412413664162159,593920.0,1302.3148999214172,1.2025103135471227e-14,0.0,2.477731466293335,-0.02477731555700302,0.043377649039030075,-0.024777313694357872,-1.862645149230957e-09,0.0,-0.0016915779560804367,0.2945736348628998,0.7539263166259951,0.24979761242866516,0.5461592674255371,0.24810601770877838,0.5938287973403931,2.300675868988037,0.9981832504272461,,,,,,,
4633228000.0,84.26,1.0299999713897705,12041169408.0,1792.18293340644,145.0,0.009583573788404465,598016.0,1304.600380897522,1.1438766600591066e-14,0.0,2.4816267490386963,-0.024816259741783142,0.04115777835249901,-0.02481626719236374,7.450580596923828e-09,0.0,0.031175455078482628,0.2852429151535034,0.7035162206482852,0.4179511070251465,0.5012111067771912,0.44912654161453247,0.5238589644432068,2.2854809761047363,0.9978237152099609,,,,,,,
4633228000.0,84.83,0.9300000071525574,12041169408.0,1737.2832711493097,146.0,0.0035440935753285885,602112.0,1306.9580850601196,1.2519499326124617e-14,0.0,2.464319944381714,-0.024643195793032646,0.06345506012439728,-0.024643199518322945,3.725290298461914e-09,0.0,-0.015216181986033916,0.3559628129005432,0.7705541150999129,0.26565784215927124,0.6814483404159546,0.25044167041778564,0.7431294918060303,2.3577041625976562,0.998220682144165,,,,,,,
4633228000.0,81.67,0.44999998807907104,12041169408.0,1716.166923377758,147.0,0.0025134242605417967,606208.0,1309.3447992801666,1.2401538129758194e-14,0.0,2.4537668228149414,-0.02453766204416752,0.06006699800491333,-0.024537667632102966,5.587935447692871e-09,0.0,-0.02679140493273735,0.3456087112426758,0.6936785378228107,0.32693418860435486,0.533267617225647,0.300142765045166,0.6244475245475769,2.386714220046997,0.9981894493103027,,,,,,,
4633228000.0,83.54,0.7799999713897705,12041169408.0,1787.8747641428683,148.0,0.009620463475584984,610304.0,1311.63578748703,1.1652137588136213e-14,0.0,2.4717745780944824,-0.024717753753066063,0.05119636654853821,-0.024717744439840317,-9.778887033462524e-09,0.0,0.014120891690254211,0.3197159469127655,0.6884327867394406,0.5052810907363892,0.49246206879615784,0.5194019079208374,0.5727807283401489,2.2909882068634033,0.9978513717651367,,,,,,,
4633228000.0,88.56,0.9200000166893005,12041169408.0,1720.110566905902,149.0,0.0065172528848052025,614400.0,1314.017029762268,1.297920104725847e-14,0.0,2.4997572898864746,-0.024997571483254433,0.056582383811473846,-0.024997571483254433,0.0,0.0,-0.014086630195379257,0.33614566922187805,0.6045712337047822,0.44621244072914124,0.4641857445240021,0.4321258068084717,0.5345562696456909,2.381242275238037,0.9977161884307861,,,,,,,
4633228000.0,93.66,1.0700000524520874,12041169408.0,1793.9430033445074,150.0,0.0045977747067809105,618496.0,1316.3002684116364,1.2888995426507677e-14,0.0,2.460151433944702,-0.024601509794592857,0.08073440939188004,-0.024601513519883156,3.725290298461914e-09,0.0,0.003639714792370796,0.4018644094467163,0.44522029786708994,0.3208716809749603,0.4719075560569763,0.32451140880584717,0.5395345687866211,2.283238649368286,0.9980266094207764,,,,,,,
4633228000.0,93.25,0.9300000071525574,12041169408.0,1788.6066537715265,151.0,0.007423073053359985,622592.0,1318.5903191566467,1.2460518727941405e-14,0.0,2.4984498023986816,-0.024984493851661682,0.06006865203380585,-0.02498449757695198,3.725290298461914e-09,0.0,0.027582667768001556,0.3455512225627899,0.5882676097086244,0.3544001579284668,0.4944416284561157,0.38198283314704895,0.5385238528251648,2.290050745010376,0.9981815814971924,,,,,,,
4633228000.0,93.09,0.9800000190734863,12041169408.0,1777.208113482326,152.0,0.006094872020184994,626688.0,1320.8950576782227,1.3036446921965705e-14,0.0,2.500413656234741,-0.025004131719470024,0.053270600736141205,-0.025004135444760323,3.259629011154175e-09,0.0,-0.00890757329761982,0.32632479071617126,0.6360210391707135,0.37685880064964294,0.4628213346004486,0.3679512143135071,0.5408936738967896,2.3047385215759277,0.9981138706207275,,,,,,,
4633228000.0,94.11,1.090000033378601,12041169408.0,1785.7339130187127,153.0,0.008634483441710472,630784.0,1323.1887924671173,1.2788381464901022e-14,0.0,2.495467185974121,-0.024954672902822495,0.04332330450415611,-0.024954671040177345,-1.862645149230957e-09,0.0,0.052491459995508194,0.289675235748291,0.6155887435245664,0.32630133628845215,0.4123976528644562,0.37879276275634766,0.4672112762928009,2.2937347888946533,0.9982855319976807,,,,,,,
4633228000.0,89.53,1.3300000429153442,12041169408.0,1772.8447630406727,154.0,0.009684868156909943,634880.0,1325.4992034435272,1.2835218998752396e-14,0.0,2.492870330810547,-0.02492869459092617,0.0510987713932991,-0.024928702041506767,7.450580596923828e-09,0.0,0.0596831813454628,0.3141011595726013,0.694560356449561,0.2508152425289154,0.4345269203186035,0.3104984164237976,0.5683382153511047,2.310410976409912,0.9979124069213867,,,,,,,
4633228000.0,83.22,1.1100000143051147,12041169408.0,1757.8795333786825,155.0,0.005966790486127138,638976.0,1327.8292834758759,1.3336554083309693e-14,0.0,2.47701358795166,-0.02477012760937214,0.044193919748067856,-0.024770135059952736,7.450580596923828e-09,0.0,-0.008557242341339588,0.2972140312194824,0.7346798468247304,0.20411191880702972,0.4872894883155823,0.1955546736717224,0.5770111083984375,2.330080032348633,0.9977462291717529,,,,,,,
4633228000.0,85.9,0.8199999928474426,12041169408.0,1672.435951104921,156.0,0.0032857530750334263,643072.0,1330.2784056663513,1.3749418270592173e-14,0.0,2.49129581451416,-0.024912964552640915,0.04952121153473854,-0.024912957102060318,-7.450580596923828e-09,0.0,-0.01483391597867012,0.3143986761569977,0.679861481482884,0.29837870597839355,0.3804176151752472,0.28354477882385254,0.5556632876396179,2.449122190475464,0.9980511665344238,,,,,,,
4633228000.0,87.11,0.7699999809265137,12041169408.0,1700.8262617494527,157.0,0.008076723664999008,647168.0,1332.686646938324,1.439300068017957e-14,0.0,2.502660036087036,-0.025026589632034302,0.03357197344303131,-0.025026598945260048,9.313225746154785e-09,0.0,0.012778390198946,0.25883781909942627,0.6163553168825975,0.3530341386795044,0.35199204087257385,0.3658125400543213,0.41789117455482483,2.4082412719726562,0.9980123043060303,,,,,,,
4633228000.0,86.71,1.2300000190734863,12041169408.0,1795.6990260087766,158.0,0.008683642372488976,651264.0,1334.967652797699,1.4021769856320532e-14,0.0,2.506917953491211,-0.02506917715072632,0.050567228347063065,-0.025069179013371468,2.7939677238464355e-09,0.0,0.031989820301532745,0.3164420425891876,0.6865911501764178,0.4031892418861389,0.48447251319885254,0.43517905473709106,0.5652473568916321,2.281005859375,0.9980528354644775,,,,,,,
4633228000.0,89.92,1.2000000476837158,12041169408.0,1751.2496284682372,159.0,0.008842144161462784,655360.0,1337.3065540790558,1.4665352265907927e-14,0.0,2.4784746170043945,-0.024784764274954796,0.052304260432720184,-0.024784745648503304,-1.862645149230957e-08,0.0,0.025227485224604607,0.32248643040657043,0.5699403063567184,0.46671557426452637,0.39403045177459717,0.4919430613517761,0.4917529821395874,2.3389012813568115,0.9982070922851562,,,,,,,
,,,,,,,,,,,,,,,,,,,,,,,,,,0.0071067772805690765,0.07018819451332092,0.05886753275990486,0.0071067772805690765,0.07018819451332092,0.05886753275990486,
,,,,,,,,,,,,,,,,,,,,,,,,,,0.005081535317003727,0.05287095531821251,0.05109960213303566,0.005081535317003727,0.05287095531821251,0.05109960213303566,
,,,,,,,,,,,,,,,,,,,,,,,,,,0.004268944263458252,0.049218133091926575,0.04830606281757355,0.004268944263458252,0.049218133091926575,0.04830606281757355,
,,,,,,,,,,,,,,,,,,,,,,,,,,0.0041485195979475975,0.04700061306357384,0.047477465122938156,0.0041485195979475975,0.04700061306357384,0.047477465122938156,
,,,,,,,,,,,,,,,,,,,,,,,,,,0.004162308294326067,0.044796038419008255,0.04564789682626724,0.004162308294326067,0.044796038419008255,0.04564789682626724,
,,,,,,,,,,,,,,,,,,,,,,,,,,0.0038569809403270483,0.04402564838528633,0.044725023210048676,0.0038569809403270483,0.04402564838528633,0.044725023210048676,
,,,,,,,,,,,,,,,,,,,,,,,,,,,,,,,,0.55
4633228000.0,89.79,1.3700000047683716,11990521856.0,16.813437612267922,160.0,0.011695967987179756,659456.0,1580.921220779419,1.252296877307657e-14,0.0,2.482100486755371,-0.024821003898978233,0.027435515075922012,-0.024821003898978233,0.0,0.0,0.07127922773361206,0.2231646478176117,0.8494614190451522,0.3575057089328766,0.5138434767723083,0.42878496646881104,0.575177013874054,243.61466670036316,0.9979126453399658,,,,,,,
4633228000.0,85.53,1.649999976158142,12041169408.0,1752.1712539124558,161.0,0.01230105571448803,663552.0,1583.2588918209076,1.3754622441020103e-14,0.0,2.4722957611083984,-0.02472296543419361,0.04692484810948372,-0.024722957983613014,-7.450580596923828e-09,0.0,0.08110561966896057,0.2954536974430084,0.7476551074789637,0.4534776210784912,0.5537402033805847,0.5345832705497742,0.5881555676460266,2.3376710414886475,0.9978454113006592,,,,,,,
4633228000.0,93.33,1.559999942779541,12041169408.0,1756.5769824701893,162.0,0.0063059632666409016,667648.0,1585.590699672699,1.4955051086396054e-14,0.0,2.4347667694091797,-0.024347659200429916,0.044444844126701355,-0.024347666651010513,7.450580596923828e-09,0.0,0.015363514423370361,0.2977839708328247,0.7915318378132952,0.3954952359199524,0.5046818256378174,0.41085875034332275,0.6522009968757629,2.331807851791382,0.9978575706481934,,,,,,,
4633228000.0,98.37,1.1299999952316284,12041169408.0,1741.1270188181995,163.0,0.006310096010565758,671744.0,1587.9431989192963,1.5187504032176946e-14,0.0,2.425905466079712,-0.024259069934487343,0.05738458037376404,-0.02425905503332615,-1.4901161193847656e-08,0.0,-0.01971084624528885,0.33824336528778076,0.7646301551909532,0.5118629932403564,0.5655965209007263,0.4921521544456482,0.6971943974494934,2.35249924659729,0.9976973533630371,,,,,,,
4633228000.0,97.18,0.9200000166893005,12041169408.0,1764.6935931376522,164.0,0.00781753845512867,675840.0,1590.2642817497253,1.5808535036576643e-14,0.0,2.4166808128356934,-0.024166801944375038,0.06581626087427139,-0.024166807532310486,5.587935447692871e-09,0.0,-0.01668291911482811,0.3624724745750427,0.761278645079176,0.5016942620277405,0.5873445868492126,0.48501133918762207,0.7418726086616516,2.321082830429077,0.9980721473693848,,,,,,,
4633228000.0,96.93,1.159999966621399,12041169408.0,1733.2516658208845,165.0,0.0078212795779109,679936.0,1592.6274700164795,1.602190602412179e-14,0.0,2.416407585144043,-0.024164078757166862,0.06427781283855438,-0.024164075031876564,-3.725290298461914e-09,0.0,-0.004768850281834602,0.3585585653781891,0.7847419800492977,0.568407416343689,0.643680989742279,0.5636385679244995,0.7728237509727478,2.3631882667541504,0.9981069564819336,,,,,,,
4633228000.0,97.54,1.4600000381469727,12041169408.0,1754.5277663792747,166.0,0.011735045351088047,684032.0,1594.9620013237,1.6313339568085894e-14,0.0,2.4206671714782715,-0.024206671863794327,0.03785572201013565,-0.024206671863794327,0.0,0.0,-0.017188070341944695,0.27465328574180603,0.8146337945360628,0.6378884315490723,0.5986462235450745,0.6207003593444824,0.63792484998703,2.334531307220459,0.9976294040679932,,,,,,,
4633228000.0,95.36,1.6699999570846558,12041169408.0,1810.8339906879419,167.0,0.009634433314204216,688128.0,1597.2239425182343,1.6436504934880247e-14,0.0,2.405740737915039,-0.024057410657405853,0.0566408671438694,-0.024057406932115555,-2.7939677238464355e-09,0.0,0.011654309928417206,0.3364127576351166,0.7861664582830822,0.6316741108894348,0.6423314809799194,0.6433284282684326,0.7275026440620422,2.2619411945343018,0.9977540969848633,,,,,,,
4633228000.0,100.84,1.7200000286102295,12041169408.0,1775.7115726319626,168.0,0.011146404780447483,692224.0,1599.5306234359741,1.6665488433709186e-14,0.0,2.4037270545959473,-0.024037258699536324,0.07020668685436249,-0.02403726987540722,1.1175870895385742e-08,0.0,0.004711262881755829,0.3747338652610779,0.7509241150131541,0.820918619632721,0.638329803943634,0.8256298899650574,0.7508566379547119,2.306680917739868,0.9986722469329834,,,,,,,
4633228000.0,101.99,1.8899999856948853,12041169408.0,1737.7746103329391,169.0,0.011788161471486092,696320.0,1601.8876609802246,1.6393136847980827e-14,0.0,2.4075446128845215,-0.024075467139482498,0.15893128514289856,-0.024075444787740707,-2.2351741790771484e-08,0.0,0.044497206807136536,0.5621029734611511,0.5697922454740836,0.6640293598175049,0.6965543627738953,0.708526611328125,0.8569920659065247,2.3570375442504883,0.9978830814361572,,,,,,,
4633228000.0,100.04,1.8200000524520874,12041169408.0,1644.8036813246151,170.0,0.012364359572529793,700416.0,1604.3779277801514,1.6897941379490078e-14,0.0,2.397663116455078,-0.0239766426384449,0.06437981128692627,-0.023976631462574005,-1.1175870895385742e-08,0.0,0.008509228006005287,0.358773797750473,0.7643441697279018,0.7789518237113953,0.6824983954429626,0.7874610424041748,0.7390633225440979,2.490266799926758,0.9979732036590576,,,,,,,
4633228000.0,89.35,1.7400000095367432,12041169408.0,1761.5271124977403,171.0,0.012370934709906578,704512.0,1606.7031829357147,1.765254609153999e-14,0.0,2.3900368213653564,-0.02390037663280964,0.05665717273950577,-0.023900367319583893,-9.313225746154785e-09,0.0,-0.041543055325746536,0.334089457988739,0.8280163773841185,0.7692759037017822,0.7584948539733887,0.7277328968048096,0.8055996298789978,2.3252551555633545,0.9981722831726074,,,,,,,
4633228000.0,94.79,1.9199999570846558,12041169408.0,1759.4706619859064,172.0,0.01025379914790392,708608.0,1609.0311558246613,1.7784385075714226e-14,0.0,2.407249927520752,-0.02407250553369522,0.06933533400297165,-0.024072498083114624,-7.450580596923828e-09,0.0,0.011825397610664368,0.3722427487373352,0.7675091674742898,0.78338223695755,0.6754503846168518,0.795207679271698,0.7720107436180115,2.327972888946533,0.9978992938995361,,,,,,,
4633228000.0,100.05,1.9800000190734863,12041169408.0,1716.2260704517166,173.0,0.014320127665996552,712704.0,1611.4177877902985,1.935777926842519e-14,0.0,2.392777919769287,-0.02392779290676117,0.045064810663461685,-0.023927778005599976,-1.3969838619232178e-08,0.0,-0.0022674668580293655,0.3002440333366394,0.8422992618391507,0.8132868409156799,0.7387117743492126,0.8110194206237793,0.7560623288154602,2.386631965637207,0.9978158473968506,,,,,,,
4633228000.0,105.15,2.190000057220459,12041169408.0,1792.291562780602,174.0,0.012817122042179108,716800.0,1613.7031302452087,1.8958792868950525e-14,0.0,2.3821394443511963,-0.023821398615837097,0.047806382179260254,-0.02382139302790165,-5.122274160385132e-09,0.0,0.019168294966220856,0.30865612626075745,0.801123090257124,0.755511999130249,0.6474148035049438,0.7746802568435669,0.6921221017837524,2.2853424549102783,0.9980533123016357,,,,,,,
4633228000.0,105.08,2.5,12041169408.0,1715.1933829372101,175.0,0.016910824924707413,720896.0,1616.0911991596222,1.915655134521188e-14,0.0,2.3753106594085693,-0.023753110319375992,0.1567613184452057,-0.023753106594085693,-3.725290298461914e-09,0.0,0.06861820816993713,0.5557783246040344,0.6111458184538245,0.8440062999725342,0.7045353651046753,0.9126245975494385,0.8912678956985474,2.388068914413452,0.9977047443389893,,,,,,,
4633228000.0,108.17,2.5899999141693115,12041169408.0,1745.1168540362178,176.0,0.013412123546004295,724992.0,1618.4383199214935,1.9480944635219544e-14,0.0,2.3679919242858887,-0.02367991767823696,0.055576078593730927,-0.02367991954088211,1.862645149230957e-09,0.0,0.03380712866783142,0.3317168951034546,0.8010531374403013,0.8035427331924438,0.6831977367401123,0.8373498916625977,0.7437021136283875,2.347120761871338,0.9979033470153809,,,,,,,
4633228000.0,112.04,2.5299999713897705,12041169408.0,1761.208561589102,177.0,0.010701538063585758,729088.0,1620.7639956474304,2.0523513444281605e-14,0.0,2.35026216506958,-0.023502618074417114,0.0808786153793335,-0.023502621799707413,3.725290298461914e-09,0.0,-0.004728710278868675,0.40221187472343445,0.7110276730888566,0.7633447647094727,0.6732479333877563,0.758616030216217,0.7482154965400696,2.3256757259368896,0.9979043006896973,,,,,,,
4633228000.0,117.51,2.3499999046325684,12041169408.0,1768.2572337761935,178.0,0.01084851659834385,733184.0,1623.0804007053375,2.3051005548779813e-14,0.0,2.3281302452087402,-0.023281298577785492,0.12891370058059692,-0.02328130230307579,3.725290298461914e-09,0.0,-0.024741675704717636,0.5072258710861206,0.7212316927615915,1.0074068307876587,0.832843542098999,0.9826650619506836,0.9606819748878479,2.3164050579071045,0.998093843460083,,,,,,,
4633228000.0,118.96,2.240000009536743,12041169408.0,1771.536206227358,179.0,0.012505898252129555,737280.0,1625.3925182819366,2.1366589053606333e-14,0.0,2.3212361335754395,-0.023212365806102753,0.09150854498147964,-0.023212360218167305,-4.6566128730773926e-09,0.0,-0.03519219532608986,0.4264070689678192,0.7440032347110376,0.886951744556427,0.6885847449302673,0.8517595529556274,0.842766284942627,2.312117576599121,0.9981386661529541,,,,,,,
4633228000.0,129.81,2.319999933242798,12041169408.0,1682.618611705669,180.0,0.010687858797609806,741376.0,1627.8268191814423,2.3415297478734942e-14,0.0,2.321688652038574,-0.023216882720589638,0.0805007591843605,-0.023216886445879936,3.725290298461914e-09,0.0,0.059227511286735535,0.3969031274318695,0.7652813932832049,0.9535248279571533,0.6808123588562012,1.0127522945404053,0.8192391991615295,2.4343008995056152,0.9979965686798096,,,,,,,
4633228000.0,128.39,2.5999999046325684,12041169408.0,1719.0427544597892,181.0,0.015835361555218697,745472.0,1630.209540605545,2.4234086959395995e-14,0.0,2.305858612060547,-0.023058585822582245,0.17751818895339966,-0.023058585822582245,6.984919309616089e-10,0.0,0.007439436390995979,0.59587562084198,0.6191615739060594,0.9935370683670044,0.7067581415176392,1.0009765625,0.9655733704566956,2.382721424102783,0.9978604316711426,,,,,,,
4633228000.0,123.53,2.490000009536743,12041169408.0,1781.7116160600021,182.0,0.01053343340754509,749568.0,1632.5084536075592,2.6248100915005068e-14,0.0,2.2893452644348145,-0.022893456742167473,0.09483976662158966,-0.022893453016877174,-3.725290298461914e-09,0.0,-0.05447115749120712,0.4321551024913788,0.7408799473943171,1.0482746362686157,0.7167363166809082,0.9938035011291504,0.8489637970924377,2.29891300201416,0.9983861446380615,,,,,,,
4633228000.0,117.84,2.450000047683716,12041169408.0,1686.0219651667958,183.0,0.008279314264655113,753664.0,1634.9378407001495,2.6492696925117798e-14,0.0,2.281438112258911,-0.022814372554421425,0.09131702780723572,-0.022814380005002022,7.450580596923828e-09,0.0,-0.0602702833712101,0.4231373965740204,0.76070875578813,0.9800209999084473,0.761857807636261,0.9197507500648499,0.8650038242340088,2.429387092590332,0.9979186058044434,,,,,,,
4633228000.0,120.37,1.909999966621399,12041169408.0,1800.5425128302732,184.0,0.007976849563419819,757760.0,1637.2127106189728,2.648055386078596e-14,0.0,2.2556958198547363,-0.022556979209184647,0.0968741700053215,-0.022556956857442856,-2.2351741790771484e-08,0.0,-0.09030972421169281,0.4308570623397827,0.7724076082342434,0.9525998830795288,0.762332558631897,0.8622901439666748,0.9031384587287903,2.274869918823242,0.9976768493652344,,,,,,,
4633228000.0,118.43,1.8200000524520874,12041169408.0,1787.4911895677974,185.0,0.011138604022562504,761856.0,1639.5041904449463,2.811639809863209e-14,0.0,2.244074583053589,-0.02244074083864689,0.08941596746444702,-0.022440744563937187,3.725290298461914e-09,0.0,-0.04386848211288452,0.42065510153770447,0.7270178887355021,0.89874267578125,0.6630473732948303,0.8548742532730103,0.8051170110702515,2.2914798259735107,0.9979987144470215,,,,,,,
4633228000.0,118.59,1.590000033378601,12041169408.0,1776.8441708207697,186.0,0.007830198854207993,765952.0,1641.8094010353088,2.821354261328679e-14,0.0,2.2115139961242676,-0.022115154191851616,0.0976489931344986,-0.022115139290690422,-1.4901161193847656e-08,0.0,0.0020500607788562775,0.4419745206832886,0.5692807970216032,0.6208095550537109,0.5204170942306519,0.6228595972061157,0.6734418869018555,2.305210590362549,0.9980275630950928,,,,,,,
4633228000.0,112.36,1.7300000190734863,12041169408.0,1773.9949549181906,187.0,0.010081253945827484,770048.0,1644.1183140277863,2.958223943583249e-14,0.0,2.194239854812622,-0.021942388266324997,0.10607874393463135,-0.021942397579550743,9.313225746154785e-09,0.0,0.04289599508047104,0.4586597979068756,0.6484007538494643,0.5282015800476074,0.5648515224456787,0.5710976123809814,0.7735112905502319,2.308912992477417,0.9979712963104248,,,,,,,
4633228000.0,115.27,1.7899999618530273,12041169408.0,1725.5231407170818,188.0,0.008881410583853722,774144.0,1646.4920868873596,3.0737565270833045e-14,0.0,2.1773390769958496,-0.021773405373096466,0.07535847276449203,-0.021773390471935272,-1.4901161193847656e-08,0.0,0.05029499903321266,0.3849981129169464,0.6472750322887968,0.5446756482124329,0.5501827597618103,0.5949706435203552,0.6482468843460083,2.3737728595733643,0.9977428913116455,,,,,,,
4633228000.0,121.58,2.0999999046325684,12041169408.0,1747.4302443013557,189.0,0.01384069211781025,778240.0,1648.8361003398895,3.4878350207989683e-14,0.0,2.169555425643921,-0.021695580333471298,0.07736685872077942,-0.02169555425643921,-2.60770320892334e-08,0.0,0.1252976953983307,0.37291839718818665,0.6869341754639667,0.5511361956596375,0.5302047729492188,0.6764339208602905,0.6664937138557434,2.3440134525299072,0.9977326393127441,,,,,,,
4633228000.0,124.36,2.5799999237060547,12041169408.0,1709.1026609478608,190.0,0.01548710372298956,782336.0,1651.232679605484,3.285913208195268e-14,0.0,2.2121527194976807,-0.022121530026197433,0.05413085222244263,-0.022121526300907135,-3.725290298461914e-09,0.0,0.11897046864032745,0.306807279586792,0.8067526664534544,0.5356583595275879,0.613706111907959,0.6546288728713989,0.6979252696037292,2.3965792655944824,0.997849702835083,,,,,,,
4633228000.0,124.77,2.7200000286102295,12041169408.0,1779.1028369657304,191.0,0.015036283060908318,786432.0,1653.534963607788,3.5119910452019454e-14,0.0,2.168856143951416,-0.021688571199774742,0.05967459827661514,-0.021688560023903847,-1.1175870895385742e-08,0.0,0.08926062285900116,0.33377978205680847,0.7493469575407585,0.7656018733978271,0.59546959400177,0.8548625707626343,0.666689395904541,2.302284002304077,0.9979369640350342,,,,,,,
,,,,,,,,,,,,,,,,,,,,,,,,,,0.057883117347955704,0.12041068077087402,0.10252583026885986,0.057883117347955704,0.12041068077087402,0.10252583026885986,
,,,,,,,,,,,,,,,,,,,,,,,,,,0.012597700580954552,0.07949064671993256,0.07553106546401978,0.012597700580954552,0.07949064671993256,0.07553106546401978,
,,,,,,,,,,,,,,,,,,,,,,,,,,0.011477428488433361,0.07094056904315948,0.06810770183801651,0.011477428488433361,0.07094056904315948,0.06810770183801651,
,,,,,,,,,,,,,,,,,,,,,,,,,,0.0108783058822155,0.06923216581344604,0.06482712924480438,0.0108783058822155,0.06923216581344604,0.06482712924480438,
,,,,,,,,,,,,,,,,,,,,,,,,,,0.008808126673102379,0.06367176026105881,0.06234585493803024,0.008808126673102379,0.06367176026105881,0.06234585493803024,
,,,,,,,,,,,,,,,,,,,,,,,,,,0.009182911366224289,0.0640535056591034,0.0634259581565857,0.009182911366224289,0.0640535056591034,0.0634259581565857,
,,,,,,,,,,,,,,,,,,,,,,,,,,,,,,,,1.77
4633228000.0,120.3,2.859999895095825,11990521856.0,16.806821741711204,192.0,0.014463989995419979,790528.0,1897.245527267456,2.3429175266542757e-14,0.0,2.2125325202941895,-0.022125327959656715,0.1253075897693634,-0.022125324234366417,-3.725290298461914e-09,0.0,0.06938208639621735,0.4958440363407135,0.7602348254771552,0.7406390905380249,0.7483041882514954,0.810021162033081,1.012632966041565,243.71056365966797,0.9978406429290771,,,,,,,
4633228000.0,107.14,2.430000066757202,12041169408.0,1697.9289441964188,193.0,0.011275943368673325,794624.0,1899.657877922058,2.359570872023653e-14,0.0,2.2269983291625977,-0.02226998284459114,0.06857482343912125,-0.02226998284459114,0.0,0.0,0.05954694747924805,0.36556318402290344,0.7464760097634244,0.703811526298523,0.617628812789917,0.763358473777771,0.7260273694992065,2.412350654602051,0.9980247020721436,,,,,,,
4633228000.0,110.36,2.4800000190734863,12041169408.0,1724.0151096323405,194.0,0.01381688378751278,798720.0,1902.0337271690369,2.516780187034051e-14,0.0,2.191354990005493,-0.021913552656769753,0.08900926262140274,-0.021913548931479454,-3.725290298461914e-09,0.0,-0.013719500042498112,0.4217507839202881,0.8041142899476514,0.9411158561706543,0.8062059879302979,0.9273964166641235,0.9529157876968384,2.3758492469787598,0.9977307319641113,,,,,,,
4633228000.0,105.1,2.3399999141693115,12041169408.0,1804.0655613758174,195.0,0.014110359363257885,802816.0,1904.3041546344757,2.4178575808164737e-14,0.0,2.2316489219665527,-0.02231649123132229,0.09069620817899704,-0.02231648936867714,-2.3283064365386963e-09,0.0,-0.03701058775186539,0.424342542886734,0.8107023165480196,1.115211844444275,0.8826523423194885,1.0782012939453125,0.9753127694129944,2.2704274654388428,0.9976599216461182,,,,,,,
4633228000.0,104.67,2.069999933242798,12041169408.0,1752.59899597144,196.0,0.007805813569575548,806912.0,1906.6412551403046,2.3571422591572855e-14,0.0,2.1681535243988037,-0.021681545302271843,0.09951101988554001,-0.021681534126400948,-1.1175870895385742e-08,0.0,-0.08511348068714142,0.4379778206348419,0.7278095416438654,1.1375997066497803,0.7410717010498047,1.0524861812591553,0.8394902944564819,2.3371005058288574,0.9978060722351074,,,,,,,
4633228000.0,115.46,2.490000009536743,12041169408.0,1752.1919837728244,197.0,0.015199165791273117,811008.0,1908.978898525238,2.3045801378351882e-14,0.0,2.1882474422454834,-0.021882470697164536,0.14032918214797974,-0.021882474422454834,2.7939677238464355e-09,0.0,0.061703357845544815,0.5262306332588196,0.7770249764593748,1.3574745655059814,0.9048990607261658,1.4191780090332031,1.1144177913665771,2.3376433849334717,0.9978022575378418,,,,,,,
4633228000.0,128.59,2.950000047683716,12041169408.0,1745.771393864776,198.0,0.01894042082130909,815104.0,1911.325139284134,2.398775622580729e-14,0.0,2.1680872440338135,-0.02168087102472782,0.18978369235992432,-0.02168087102472782,0.0,0.0,0.06746494024991989,0.6124601364135742,0.7807398804995492,1.5884356498718262,1.152270793914795,1.6559005975723267,1.3079707622528076,2.346240758895874,0.9982495307922363,,,,,,,
4633228000.0,129.92,3.1500000953674316,12041169408.0,1669.1914448914872,199.0,0.014690124429762363,819200.0,1913.7790219783783,2.3363255774455638e-14,0.0,2.200887680053711,-0.022008877247571945,0.12082114815711975,-0.022008875384926796,-9.313225746154785e-10,0.0,-0.0606052428483963,0.48788052797317505,0.7840662706555555,1.5967071056365967,0.9292973875999451,1.5361018180847168,1.049912691116333,2.4538826942443848,0.9980638027191162,,,,,,,
4633228000.0,125.59,3.3499999046325684,12041169408.0,1727.7109941885917,200.0,0.015476090833544731,823296.0,1916.1497888565063,2.3496829482105852e-14,0.0,2.2180540561676025,-0.022180546075105667,0.19073349237442017,-0.02218054048717022,-5.587935447692871e-09,0.0,-0.11073976010084152,0.6076955199241638,0.8075280323184023,1.574966549873352,1.2092742919921875,1.4642268419265747,1.3851673603057861,2.3707668781280518,0.9977986812591553,,,,,,,
4633228000.0,120.37,2.8399999141693115,12041169408.0,1779.5067811843587,201.0,0.011086000129580498,827392.0,1918.451550245285,2.1854046350355816e-14,0.0,2.213794708251953,-0.022137951105833054,0.127638041973114,-0.022137947380542755,-3.725290298461914e-09,0.0,-0.09148331731557846,0.4969578981399536,0.8285368905354322,1.7678967714309692,1.0672569274902344,1.6764135360717773,1.2001464366912842,2.3017613887786865,0.9979598522186279,,,,,,,
4633228000.0,130.7,2.809999942779541,12041169408.0,1740.2204975427555,202.0,0.01062534935772419,831488.0,1920.805274963379,2.2625998297165495e-14,0.0,2.1987462043762207,-0.021987460553646088,0.15328964591026306,-0.021987462416291237,1.862645149230957e-09,0.0,-0.022112520411610603,0.553321897983551,0.7368473976414287,1.6188827753067017,0.9358276724815369,1.5967702865600586,1.0786336660385132,2.353724718093872,0.9978113174438477,,,,,,,
4633228000.0,128.96,2.450000047683716,12041169408.0,1761.9941314277123,203.0,0.015097377821803093,835584.0,1923.1299138069153,2.185751579730777e-14,0.0,2.195746421813965,-0.021957464516162872,0.14681434631347656,-0.021957464516162872,0.0,0.0,-0.07994554936885834,0.5360107421875,0.7689083681412103,1.5614421367645264,1.017321228981018,1.4814965724945068,1.1150166988372803,2.324638843536377,0.9977247714996338,,,,,,,
4633228000.0,123.87,2.619999885559082,12041169408.0,1687.6457480826705,204.0,0.01418079063296318,839680.0,1925.556963443756,2.0665760769311703e-14,0.0,2.2192223072052,-0.022192224860191345,0.11791376024484634,-0.022192222997546196,-1.862645149230957e-09,0.0,-0.06600023806095123,0.481173574924469,0.829033008523839,1.4371986389160156,0.9929775595664978,1.371198296546936,1.1637122631072998,2.4270496368408203,0.9978382587432861,,,,,,,
4633228000.0,120.29,3.369999885559082,12041169408.0,1692.5329158781092,205.0,0.02113119699060917,843776.0,1927.9770050048828,2.0556473190325164e-14,0.0,2.217849016189575,-0.022178474813699722,0.183877095580101,-0.022178489714860916,1.4901161193847656e-08,0.0,0.1340600699186325,0.5914959907531738,0.8067817769529289,1.2361061573028564,1.0793174505233765,1.370166301727295,1.3456367254257202,2.420041561126709,0.9981935024261475,,,,,,,
4633228000.0,129.56,3.6500000953674316,12041169408.0,1719.3754860425279,206.0,0.01161874458193779,847872.0,1930.3592653274536,2.0690046897975378e-14,0.0,2.2311959266662598,-0.022311948239803314,0.12390323728322983,-0.02231195941567421,1.1175870895385742e-08,0.0,0.004250637721270323,0.49784427881240845,0.6548217519544359,1.1496294736862183,0.6811532378196716,1.1538801193237305,0.8473673462867737,2.382260322570801,0.9978611469268799,,,,,,,
4633228000.0,131.19,3.440000057220459,12041169408.0,1700.8153168792553,207.0,0.015335898846387863,851968.0,1932.767522096634,2.0176568749086243e-14,0.0,2.2673964500427246,-0.0226739551872015,0.10268642753362656,-0.022673964500427246,9.313225746154785e-09,0.0,-0.025249363854527473,0.4525321424007416,0.7481996981636501,1.2238776683807373,0.8401830196380615,1.198628306388855,0.9018230438232422,2.408256769180298,0.9979662895202637,,,,,,,
4633228000.0,133.2,2.7300000190734863,12041169408.0,1776.120037681325,208.0,0.009233175776898861,856064.0,1935.0736725330353,1.9050733213177296e-14,0.0,2.2971959114074707,-0.022971946746110916,0.10189667344093323,-0.02297195792198181,1.1175870895385742e-08,0.0,-0.045389845967292786,0.44920194149017334,0.7501932272555761,1.0312625169754028,0.8274088501930237,0.9858726263046265,0.8987511992454529,2.306150436401367,0.9979138374328613,,,,,,,
4633228000.0,131.68,2.3299999237060547,12041169408.0,1749.7492415064457,209.0,0.009822530671954155,860160.0,1937.4145793914795,1.854245923471609e-14,0.0,2.3234140872955322,-0.023234140127897263,0.10534635186195374,-0.023234140127897263,9.313225746154785e-10,0.0,-0.01430947333574295,0.45884567499160767,0.7300676801619885,1.0745599269866943,0.7325590252876282,1.0602504014968872,0.8831595778465271,2.340906858444214,0.9976522922515869,,,,,,,
4633228000.0,129.4,2.549999952316284,12041169408.0,1798.4128398023825,210.0,0.01695401407778263,864256.0,1939.692143201828,1.7697648901915386e-14,0.0,2.3189010620117188,-0.023189011961221695,0.13164399564266205,-0.023189010098576546,-1.862645149230957e-09,0.0,0.08846285939216614,0.5054944753646851,0.7761482389806772,1.170917272567749,0.9892072677612305,1.2593801021575928,1.0684056282043457,2.2775638103485107,0.9979569911956787,,,,,,,
4633228000.0,132.46,2.890000104904175,12041169408.0,1721.97622071052,211.0,0.015164053067564964,868352.0,1942.0708055496216,1.9855644906030534e-14,0.0,2.299314022064209,-0.022993143647909164,0.07867129147052765,-0.022993139922618866,-3.725290298461914e-09,0.0,0.03870153799653053,0.39482003450393677,0.7360542851229128,1.0279150009155273,0.6955239772796631,1.0666165351867676,0.7684963345527649,2.378662347793579,0.9979228973388672,,,,,,,
4633228000.0,129.1,3.200000047683716,12041169408.0,1721.7610185526673,212.0,0.012630161829292774,872448.0,1944.4497652053833,1.8691645453650096e-14,0.0,2.28786563873291,-0.022878656163811684,0.10649176687002182,-0.022878656163811684,0.0,0.0,-0.0477951280772686,0.45907583832740784,0.7142189691863999,0.9937289953231812,0.7087928056716919,0.9459339380264282,0.8587519526481628,2.3789596557617188,0.9979982376098633,,,,,,,
4633228000.0,134.56,3.3299999237060547,12041169408.0,1787.7084414716137,213.0,0.014999542385339737,876544.0,1946.7409665584564,2.0712598303163077e-14,0.0,2.277611494064331,-0.022776121273636818,0.06964288651943207,-0.02277611382305622,-7.450580596923828e-09,0.0,0.0632459744811058,0.3678569495677948,0.7877039785047372,1.047653079032898,0.7031726837158203,1.1108992099761963,0.798377275466919,2.29120135307312,0.9977402687072754,,,,,,,
4633228000.0,134.66,2.7899999618530273,12041169408.0,1750.0789919142271,214.0,0.008602466434240341,880640.0,1949.0814323425293,2.0834028946481453e-14,0.0,2.222313642501831,-0.022223126143217087,0.12174636870622635,-0.022223135456442833,8.381903171539307e-09,0.0,-0.03985191881656647,0.49189797043800354,0.7516133007805506,0.9212964773178101,0.7626301050186157,0.8814445734024048,0.9869857430458069,2.340465784072876,0.9976017475128174,,,,,,,
4633228000.0,135.93,2.609999895095825,12041169408.0,1741.2475478932872,215.0,0.012160232290625572,884736.0,1951.433768749237,2.1446386333501266e-14,0.0,2.1978862285614014,-0.021978873759508133,0.07669007778167725,-0.021978862583637238,-1.1175870895385742e-08,0.0,0.03620768338441849,0.3900080621242523,0.7828081954165966,0.917788028717041,0.6679124236106873,0.9539957046508789,0.8368582129478455,2.3523364067077637,0.9978351593017578,,,,,,,
4633228000.0,134.8,2.7699999809265137,12041169408.0,1769.8535382505554,216.0,0.01421935111284256,888832.0,1953.7480845451355,2.217843964036348e-14,0.0,2.202831745147705,-0.022028321400284767,0.11297634243965149,-0.02202831767499447,-3.725290298461914e-09,0.0,0.030322132632136345,0.47443464398384094,0.7602598684922625,1.005744218826294,0.8363573551177979,1.0360665321350098,0.9689605236053467,2.3143157958984375,0.9974672794342041,,,,,,,
4633228000.0,135.02,3.0,12041169408.0,1686.8735479325135,217.0,0.0173201747238636,892928.0,1956.176245212555,2.1899149160731213e-14,0.0,2.223349094390869,-0.022233497351408005,0.1408901959657669,-0.022233489900827408,-7.450580596923828e-09,0.0,0.16602514684200287,0.5042600035667419,0.7697369633587735,1.2320430278778076,0.9228087067604065,1.3980684280395508,1.050853967666626,2.4281606674194336,0.9978313446044922,,,,,,,
4633228000.0,135.89,3.7799999713897705,12041169408.0,1664.2973515576896,218.0,0.019663257524371147,897024.0,1958.6373438835144,2.2490689866039304e-14,0.0,2.2245616912841797,-0.022245608270168304,0.1423027664422989,-0.0222456157207489,7.450580596923828e-09,0.0,0.05414735898375511,0.5307941436767578,0.8588918800609259,1.2614502906799316,1.2130380868911743,1.315597653388977,1.4130258560180664,2.4610986709594727,0.9978129863739014,,,,,,,
4633228000.0,144.62,4.25,12041169408.0,1761.061785242313,219.0,0.016981050372123718,901120.0,1960.963213443756,2.1262505645047725e-14,0.0,2.221072196960449,-0.02221072092652321,0.10340683907270432,-0.02221072092652321,0.0,0.0,0.034792955964803696,0.45349016785621643,0.7628384719690353,1.327656626701355,0.8328218460083008,1.3624494075775146,0.9312058091163635,2.325869560241699,0.9980018138885498,,,,,,,
4633228000.0,142.0,3.940000057220459,12041169408.0,1733.5404163697108,220.0,0.01107411365956068,905216.0,1963.3260080814362,2.1784657411316743e-14,0.0,2.219393253326416,-0.022193940356373787,0.11642764508724213,-0.02219393290579319,-7.450580596923828e-09,0.0,-0.07482999563217163,0.4767717123031616,0.8279528951297035,1.5186383724212646,1.0056076049804688,1.4438083171844482,1.1494412422180176,2.3627946376800537,0.9982137680053711,,,,,,,
4633228000.0,142.71,3.5399999618530273,12041169408.0,1742.968007365567,221.0,0.014468656852841377,909312.0,1965.676022529602,2.3201926491189795e-14,0.0,2.2384238243103027,-0.022384246811270714,0.12653681635856628,-0.022384237498044968,-9.313225746154785e-09,0.0,-0.0008467370644211769,0.503125011920929,0.8085714177839394,1.774243950843811,1.0516217947006226,1.7733972072601318,1.1499327421188354,2.3500144481658936,0.9981837272644043,,,,,,,
4633228000.0,152.75,3.390000104904175,12041169408.0,1737.9206949793436,222.0,0.013129482977092266,913408.0,1968.0328619480133,2.2839369284710642e-14,0.0,2.2099597454071045,-0.02209959737956524,0.17254020273685455,-0.02209959737956524,0.0,0.0,-0.07616955041885376,0.5825473666191101,0.7555499063631187,1.8742424249649048,1.060697317123413,1.7980728149414062,1.1782463788986206,2.356839418411255,0.9981784820556641,,,,,,,
4633228000.0,148.63,3.5899999141693115,12041169408.0,1645.7038214434158,223.0,0.018805664032697678,917504.0,1970.5217666625977,2.2263441090686342e-14,0.0,2.1868481636047363,-0.021868480369448662,0.17798320949077606,-0.021868480369448662,0.0,0.0,-0.008465624414384365,0.596642017364502,0.8370500916675264,1.8715077638626099,1.2735278606414795,1.8630421161651611,1.4780421257019043,2.4889047145843506,0.9978227615356445,,,,,,,
,,,,,,,,,,,,,,,,,,,,,,,,,,0.03160358965396881,0.20849153399467468,0.1802954077720642,0.03160358965396881,0.20849153399467468,0.1802954077720642,
,,,,,,,,,,,,,,,,,,,,,,,,,,0.021849049255251884,0.15606831014156342,0.14880767464637756,0.021849049255251884,0.15606831014156342,0.14880767464637756,
,,,,,,,,,,,,,,,,,,,,,,,,,,0.015720238909125328,0.14021599292755127,0.13775591552257538,0.015720238909125328,0.14021599292755127,0.13775591552257538,
,,,,,,,,,,,,,,,,,,,,,,,,,,0.012812876142561436,0.13163472712039948,0.12837550044059753,0.012812876142561436,0.13163472712039948,0.12837550044059753,
,,,,,,,,,,,,,,,,,,,,,,,,,,0.012294163927435875,0.1212010532617569,0.12167099118232727,0.012294163927435875,0.1212010532617569,0.12167099118232727,
,,,,,,,,,,,,,,,,,,,,,,,,,,0.010473974049091339,0.11908599734306335,0.11634088307619095,0.010473974049091339,0.11908599734306335,0.11634088307619095,
,,,,,,,,,,,,,,,,,,,,,,,,,,,,,,,,2.1
4633228000.0,149.23,3.9800000190734863,11990521856.0,16.834213589436754,224.0,0.018404072150588036,921600.0,2213.8357758522034,2.134056820146668e-14,0.0,2.1929714679718018,-0.02192971296608448,0.11495765298604965,-0.02192971482872963,1.862645149230957e-09,0.0,0.12079793959856033,0.4640859365463257,0.8427611362466202,1.3118617534637451,1.1260758638381958,1.43265962600708,1.1703572273254395,243.3140091896057,0.9979076385498047,,,,,,,
4633228000.0,152.49,3.9700000286102295,12041169408.0,1737.8632074765508,225.0,0.01148231141269207,925696.0,2216.19269323349,2.1621593404574924e-14,0.0,2.189425230026245,-0.021894237026572227,0.11610439419746399,-0.02189425192773342,1.4901161193847656e-08,0.0,0.023632384836673737,0.4813593924045563,0.6925233927865505,1.067389965057373,0.7887656688690186,1.091022253036499,0.8680871725082397,2.356917381286621,0.9977529048919678,,,,,,,
4633228000.0,157.41,4.179999828338623,12041169408.0,1685.075043691641,226.0,0.015298465266823769,929792.0,2218.6234455108643,2.155914335943976e-14,0.0,2.1698215007781982,-0.021698229014873505,0.06958127021789551,-0.02169821411371231,-1.4901161193847656e-08,0.0,0.05778453126549721,0.3685873746871948,0.8689653212443313,1.3962301015853882,0.9093131422996521,1.454014778137207,1.0182335376739502,2.4307522773742676,0.997826337814331,,,,,,,
4633228000.0,168.0,4.150000095367432,12041169408.0,1789.9066192980283,227.0,0.014246402308344841,933888.0,2220.911833047867,2.2870594307278225e-14,0.0,2.116896152496338,-0.021168941631913185,0.11994899064302444,-0.021168960258364677,1.862645149230957e-08,0.0,0.09675487875938416,0.48020079731941223,0.7569345386103312,1.4582054615020752,0.8908061981201172,1.5549602508544922,0.9740049242973328,2.2883875370025635,0.9977338314056396,,,,,,,
4633228000.0,187.06,4.650000095367432,12041169408.0,1695.953263199834,228.0,0.014518924988806248,937984.0,2223.3269939422607,2.230333973063381e-14,0.0,2.1333789825439453,-0.021333783864974976,0.2127007395029068,-0.021333789452910423,6.51925802230835e-09,0.0,0.00048744864761829376,0.6523075699806213,0.7186408305982186,1.4273583889007568,1.1270326375961304,1.4278459548950195,1.2297643423080444,2.415160894393921,0.9977703094482422,,,,,,,
4633228000.0,191.78,4.570000171661377,12041169408.0,1713.170510825864,229.0,0.0185437873005867,942080.0,2225.7178826332092,2.3451726671730455e-14,0.0,2.101245164871216,-0.021012447774410248,0.16778752207756042,-0.021012451499700546,3.725290298461914e-09,0.0,0.057160794734954834,0.5765317678451538,0.8055652506808615,1.6941583156585693,1.114822268486023,1.7513190507888794,1.3074836730957031,2.3908886909484863,0.9977843761444092,,,,,,,
4633228000.0,193.03,4.860000133514404,12041169408.0,1734.9843869404165,230.0,0.015057221055030823,946176.0,2228.078710794449,2.645279828517033e-14,0.0,2.022629976272583,-0.020226292312145233,0.1660711020231247,-0.02022629976272583,7.450580596923828e-09,0.0,0.16859635710716248,0.5511729717254639,0.7666873153723266,1.9498215913772583,1.1502065658569336,2.118417978286743,1.1410870552062988,2.360828161239624,0.997650146484375,,,,,,,
4633228000.0,200.79,5.699999809265137,12041169408.0,1749.530248976955,231.0,0.019148238003253937,950272.0,2230.419910669327,2.3510707269913667e-14,0.0,2.0847954750061035,-0.020847942680120468,0.28089943528175354,-0.020847953855991364,1.0244548320770264e-08,0.0,0.0530889630317688,0.7477412223815918,0.8504241491377167,2.0249319076538086,1.566677451133728,2.0780210494995117,1.9333951473236084,2.3411998748779297,0.9979238510131836,,,,,,,
4633228000.0,205.02,5.980000019073486,12041169408.0,1799.5881639410065,232.0,0.01760457083582878,954368.0,2232.6959869861603,2.502512086444142e-14,0.0,2.0476255416870117,-0.02047625742852688,0.16535323858261108,-0.02047625556588173,-1.862645149230957e-09,0.0,0.029482906684279442,0.5743847489356995,0.8144158636945238,2.302020788192749,1.2628475427627563,2.3315036296844482,1.333314061164856,2.276076316833496,0.9977200031280518,,,,,,,
4633228000.0,210.45,6.199999809265137,12041169408.0,1774.7884916383375,233.0,0.016702286899089813,958464.0,2235.00386762619,2.473195259700134e-14,0.0,2.0447745323181152,-0.020447732880711555,0.3304135501384735,-0.02044774405658245,1.1175870895385742e-08,0.0,0.04773104190826416,0.8116093277931213,0.759552146223481,2.728968620300293,1.4333710670471191,2.776700019836426,1.655147671699524,2.3078806400299072,0.9978373050689697,,,,,,,
4633228000.0,219.9,7.289999961853027,12041169408.0,1709.7427100265231,234.0,0.019971046596765518,962560.0,2237.3995497226715,2.355234063333711e-14,0.0,2.0866763591766357,-0.020866762846708298,0.2584943175315857,-0.020866762846708298,0.0,0.0,-0.01038295403122902,0.7190320491790771,0.8650681372965533,2.5660862922668457,1.7838828563690186,2.5557031631469727,1.9574512243270874,2.3956820964813232,0.9979665279388428,,,,,,,
4633228000.0,222.09,6.820000171661377,12041169408.0,1704.0986845309412,235.0,0.012639779597520828,966656.0,2239.8031663894653,2.4952262478450393e-14,0.0,2.063359260559082,-0.020633596926927567,0.30217790603637695,-0.02063359133899212,-5.587935447692871e-09,0.0,-0.007542293518781662,0.777461588382721,0.5922797957941972,3.0683703422546387,1.1844755411148071,3.0608279705047607,1.217580795288086,2.4036166667938232,0.9982187747955322,,,,,,,
4633228000.0,216.95,6.670000076293945,12041169408.0,1792.4778152053984,236.0,0.026737667620182037,970752.0,2242.088271379471,2.770873808177754e-14,0.0,1.991908073425293,-0.019919082522392273,0.3646068274974823,-0.019919080659747124,-1.862645149230957e-09,0.0,-0.01191294938325882,0.8539612293243408,0.8260866530259942,3.38584303855896,1.8150678873062134,3.373929977416992,2.047724723815918,2.285104990005493,0.9984660148620605,,,,,,,
4633228000.0,230.46,7.53000020980835,12041169408.0,1729.5639275051485,237.0,0.019672581925988197,974848.0,2244.4564983844757,2.689862221849637e-14,0.0,1.9943437576293945,-0.019943444058299065,0.33247897028923035,-0.019943436607718468,-7.450580596923828e-09,0.0,-0.05430828779935837,0.8137384653091431,0.7726135297256423,3.4113752841949463,1.6518193483352661,3.357067108154297,1.7064851522445679,2.368227005004883,0.9983413219451904,,,,,,,
4633228000.0,207.37,6.96999979019165,12041169408.0,1681.6723805134777,238.0,0.017357083037495613,978944.0,2246.8921689987183,2.5189919594659216e-14,0.0,2.0248172283172607,-0.020248176530003548,0.2786179780960083,-0.0202481709420681,-5.587935447692871e-09,0.0,-0.10450593382120132,0.7392210960388184,0.871000783068706,3.4086930751800537,1.9590123891830444,3.304187059402466,2.0581676959991455,2.4356706142425537,0.9979019165039062,,,,,,,
4633228000.0,207.46,6.650000095367432,12041169408.0,1721.8749119511858,239.0,0.01673000305891037,983040.0,2249.270971298218,2.915896690769415e-14,0.0,1.983372688293457,-0.01983371563255787,0.2744658887386322,-0.019833726808428764,1.1175870895385742e-08,0.0,-0.1155892014503479,0.7319164276123047,0.8890910874683976,3.38714599609375,1.9713490009307861,3.271556854248047,2.1977503299713135,2.3788022994995117,0.9979739189147949,,,,,,,
4633228000.0,195.95,6.46999979019165,12041169408.0,1727.2366159256048,240.0,0.015299677848815918,987136.0,2251.6423892974854,2.7738228380869145e-14,0.0,2.025259494781494,-0.020252587273716927,0.290520578622818,-0.020252594724297523,7.450580596923828e-09,0.0,-0.04000648111104965,0.7613029479980469,0.8506788436395991,3.0946731567382812,1.8209235668182373,3.054666519165039,1.970138669013977,2.371417999267578,0.9993410110473633,,,,,,,
4633228000.0,195.33,5.960000038146973,12041169408.0,1720.640317834132,241.0,0.01889190264046192,991232.0,2254.0228984355927,2.9575300541928584e-14,0.0,1.9664595127105713,-0.019664596766233444,0.21275374293327332,-0.019664594903588295,-2.7939677238464355e-09,0.0,0.03430593013763428,0.6514861583709717,0.860159140172322,3.0503058433532715,1.61106538772583,3.084611415863037,1.7421599626541138,2.3805091381073,0.9980044364929199,,,,,,,
4633228000.0,190.43,6.070000171661377,12041169408.0,1722.2803911871906,242.0,0.02131175994873047,995328.0,2256.40114068985,2.875651106126753e-14,0.0,1.9697842597961426,-0.01969783753156662,0.2177874892950058,-0.01969784125685692,3.725290298461914e-09,0.0,0.09785841405391693,0.6527654528617859,0.8685319546318335,2.8626227378845215,1.58579421043396,2.9604811668395996,1.8003088235855103,2.378242254257202,0.9979455471038818,,,,,,,
4633228000.0,200.77,7.230000019073486,12041169408.0,1805.2801572350043,243.0,0.02531072497367859,999424.0,2258.6700406074524,3.04044983634455e-14,0.0,1.947676658630371,-0.019476765766739845,0.38761043548583984,-0.019476765766739845,0.0,0.0,0.1722366213798523,0.8635610342025757,0.8006482608992264,3.099262237548828,1.7215825319290161,3.2714991569519043,1.934118390083313,2.268899917602539,0.9977097511291504,,,,,,,
4633228000.0,203.27,7.880000114440918,12041169408.0,1738.587265044789,244.0,0.024868017062544823,1003520.0,2261.025976419449,2.9519789390697326e-14,0.0,1.9708583354949951,-0.019708598032593727,0.260137677192688,-0.019708583131432533,-1.4901161193847656e-08,0.0,0.05681518092751503,0.719147801399231,0.8882911648917906,2.793889284133911,1.906219482421875,2.8507044315338135,2.1516637802124023,2.35593581199646,0.9976279735565186,,,,,,,
4633228000.0,202.62,8.029999732971191,12041169408.0,1712.0162616873654,245.0,0.01926770992577076,1007616.0,2263.4184770584106,2.951805466722135e-14,0.0,1.9548094272613525,-0.019548101350665092,0.27887484431266785,-0.019548093900084496,-7.450580596923828e-09,0.0,0.06292542070150375,0.744261622428894,0.8436467019647493,2.593998908996582,1.7204972505569458,2.656924247741699,1.8822273015975952,2.392500638961792,0.9981932640075684,,,,,,,
4633228000.0,188.39,7.550000190734863,12041169408.0,1713.4960166898575,246.0,0.017251208424568176,1011712.0,2265.808911561966,3.094573208795026e-14,0.0,1.8677600622177124,-0.018677599728107452,0.3316062390804291,-0.018677599728107452,0.0,0.0,-0.15084950625896454,0.8003832101821899,0.8477602925333999,3.4809517860412598,1.868356466293335,3.3301024436950684,2.0513229370117188,2.390434503555298,0.9980528354644775,,,,,,,
4633228000.0,201.27,7.619999885559082,12041169408.0,1770.969545586165,247.0,0.013940254226326942,1015808.0,2268.121768951416,3.344546861683284e-14,0.0,1.7854688167572021,-0.017854686826467514,0.4184192419052124,-0.017854688689112663,9.313225746154785e-10,0.0,0.02847735583782196,0.9144570231437683,0.7704187419220404,3.6086368560791016,1.8104870319366455,3.6371142864227295,1.908513069152832,2.3128573894500732,0.9975912570953369,,,,,,,
4633228000.0,221.92,7.960000038146973,12041169408.0,1772.5054642178668,248.0,0.014935970306396484,1019904.0,2270.43262219429,3.35235311732518e-14,0.0,1.8289024829864502,-0.018289022147655487,0.4475755989551544,-0.018289024010300636,1.862645149230957e-09,0.0,-0.08527643978595734,0.9423884153366089,0.8052001684005751,3.2711544036865234,2.1422030925750732,3.185877799987793,2.135185718536377,2.3108532428741455,0.9979941844940186,,,,,,,
4633228000.0,222.28,6.900000095367432,12041169408.0,1700.8932811035654,249.0,0.019385047256946564,1024000.0,2272.8407685756683,3.634245682171411e-14,0.0,1.8378000259399414,-0.018377989530563354,0.3056289553642273,-0.01837800070643425,1.1175870895385742e-08,0.0,0.00621430017054081,0.7819005846977234,0.8846109944340746,3.1240243911743164,2.1688930988311768,3.1302385330200195,2.301809072494507,2.408146381378174,0.9979515075683594,,,,,,,
4633228000.0,228.77,6.769999980926514,12041169408.0,1728.4876537452678,250.0,0.020222555845975876,1028096.0,2275.210470199585,3.635286516256997e-14,0.0,1.8078465461730957,-0.01807846501469612,0.39767026901245117,-0.01807846501469612,-9.313225746154785e-10,0.0,0.07272036373615265,0.8889573812484741,0.7590562509217754,3.0001964569091797,1.804518222808838,3.0729169845581055,1.811019778251648,2.369701623916626,0.9981698989868164,,,,,,,
4633228000.0,239.66,7.639999866485596,12041169408.0,1797.3473528889283,251.0,0.02236201800405979,1032192.0,2277.489384174347,3.7487807996727796e-14,0.0,1.7479506731033325,-0.017479518428444862,0.38419997692108154,-0.017479507252573967,-1.1175870895385742e-08,0.0,0.12891796231269836,0.8671583533287048,0.7964414717881797,3.330749988555908,1.802350640296936,3.4596681594848633,1.9220021963119507,2.278913974761963,0.9980144500732422,,,,,,,
4633228000.0,248.87,8.3100004196167,12041169408.0,1723.0189953759957,252.0,0.02406908944249153,1036288.0,2279.86660695076,4.2648610337758797e-14,0.0,1.752413272857666,-0.017524125054478645,0.3709263503551483,-0.017524132505059242,7.450580596923828e-09,0.0,0.10262676328420639,0.8552771806716919,0.7878926753971842,3.102226495742798,1.7111523151397705,3.204853057861328,1.8570727109909058,2.377222776412964,0.9985592365264893,,,,,,,
4633228000.0,243.33,8.880000114440918,12041169408.0,1721.4194287409093,253.0,0.022928640246391296,1040384.0,2282.2460386753082,4.0837125347970016e-14,0.0,1.7705591917037964,-0.01770559325814247,0.444619357585907,-0.017705591395497322,-2.7939677238464355e-09,0.0,0.0770578533411026,0.9399555921554565,0.7821763673601516,3.4088144302368164,1.7579561471939087,3.485872268676758,2.0139782428741455,2.37943172454834,0.9978494644165039,,,,,,,
4633228000.0,241.95,8.899999618530273,12041169408.0,1726.8322713435027,254.0,0.017434565350413322,1044480.0,2284.6180119514465,3.731910613868905e-14,0.0,1.8221265077590942,-0.018221259117126465,0.3075764775276184,-0.018221264705061913,6.05359673500061e-09,0.0,0.060544420033693314,0.7820720076560974,0.7599484466438147,3.3767547607421875,1.5558793544769287,3.4372992515563965,1.5962263345718384,2.3719732761383057,0.9981389045715332,,,,,,,
4633228000.0,246.51,9.5,12041169408.0,1694.0655273085345,255.0,0.020993981510400772,1048576.0,2287.0358641147614,4.07261030455075e-14,0.0,1.847537875175476,-0.018475370481610298,0.40242552757263184,-0.018475377932190895,7.450580596923828e-09,0.0,0.02980796992778778,0.8967490792274475,0.7434511081951654,3.574110984802246,1.6978085041046143,3.6039187908172607,1.7704594135284424,2.4178521633148193,0.9981200695037842,,,,,,,
,,,,,,,,,,,,,,,,,,,,,,,,,,0.09293284267187119,0.776646614074707,0.6964116096496582,0.09293284267187119,0.776646614074707,0.6964116096496582,
,,,,,,,,,,,,,,,,,,,,,,,,,,0.04699547961354256,0.563877284526825,0.5258162617683411,0.04699547961354256,0.563877284526825,0.5258162617683411,
,,,,,,,,,,,,,,,,,,,,,,,,,,0.03705001249909401,0.5319954752922058,0.5123947858810425,0.03705001249909401,0.5319954752922058,0.5123947858810425,
,,,,,,,,,,,,,,,,,,,,,,,,,,0.033048518002033234,0.4872839152812958,0.47494029998779297,0.033048518002033234,0.4872839152812958,0.47494029998779297,
,,,,,,,,,,,,,,,,,,,,,,,,,,0.03312307223677635,0.47944867610931396,0.4791693687438965,0.03312307223677635,0.47944867610931396,0.4791693687438965,
