CpuMaxMemory,EpLenMean,EpRewMean,GpuMaxMemory,IPS_total,Iter,Misc/FrameRewMean,Misc/InteractCount,Misc/TimeElapsed,Opt/approxkl,Opt/clipfrac,Opt/entropy,Opt/loss_pi,Opt/loss_vf,Opt/negent,Opt/pg,Opt/pi_kl,VFStats/AdvMean,VFStats/AdvStd,VFStats/EV,VFStats/VpredMean,VFStats/VpredStd,VFStats/VtargMean,VFStats/VtargStd,del_time,wait_optimization,scaled/pol_distance,scaled/vf_aux,scaled/vf_true,unscaled/pol_distance,unscaled/vf_aux,unscaled/vf_true,EvalEpMean
3035824000.0,88.0909090909091,-2.7272727489471436,11965495808.0,1730.51201828595,0.0,-0.011940021999180317,4096.0,2.366929531097412,2.824129818890242e-15,0.0,2.7068135738372803,-0.027068138122558594,0.14831076562404633,-0.027068134397268295,-2.7939677238464355e-09,0.0,-0.1785241961479187,0.5146020650863647,0.006219202377590549,-0.04965699091553688,0.01570730470120907,-0.22818119823932648,0.5162097811698914,2.366929531097412,1.0234951972961426,,,,,,,
3086412000.0,91.98765432098766,-2.7530863285064697,12031147008.0,1782.0352246112764,1.0,-0.013076689094305038,8192.0,4.665425062179565,2.8657631823136853e-15,0.0,2.7060399055480957,-0.027060402557253838,0.14338776469230652,-0.02706039883196354,-3.725290298461914e-09,0.0,-0.08726368844509125,0.5284209847450256,0.03846475662747517,-0.3756446838378906,0.0894702598452568,-0.46290838718414307,0.5388867259025574,2.2984955310821533,0.997124433517456,,,,,,,
3135776000.0,90.84,-2.9600000381469727,12031147008.0,1834.179434293331,2.0,-0.0125760268419981,12288.0,6.898576259613037,2.7408630920433552e-15,0.0,2.7044262886047363,-0.027044259011745453,0.16611170768737793,-0.02704426273703575,4.6566128730773926e-09,0.0,0.04610994830727577,0.5746111273765564,0.06580373992734156,-0.9799807071685791,0.22647079825401306,-0.933870792388916,0.594504177570343,2.2331511974334717,0.9970238208770752,,,,,,,
3184880000.0,89.22,-2.9200000762939453,12031147008.0,1843.208415565767,3.0,-0.014157422818243504,16384.0,9.120788335800171,2.2412627309620348e-15,0.0,2.704085350036621,-0.027040857821702957,0.1709374338388443,-0.02704085223376751,-5.122274160385132e-09,0.0,-0.0021389585454016924,0.5847681164741516,0.10466951970133831,-0.9808990359306335,0.21797043085098267,-0.9830380082130432,0.6180050373077393,2.222212076187134,0.9971401691436768,,,,,,,
3234248000.0,88.18,-2.4100000858306885,12031147008.0,1830.4953886721094,4.0,-0.010572889819741249,20480.0,11.358433961868286,2.0469737016526324e-15,0.0,2.705366373062134,-0.027053670957684517,0.19230642914772034,-0.02705366350710392,-7.450580596923828e-09,0.0,0.06019176170229912,0.6173190474510193,0.03019809972026055,-0.9628998041152954,0.2040073275566101,-0.9027080535888672,0.6268566250801086,2.2376456260681152,0.9970920085906982,,,,,,,
3283352000.0,86.25,-1.600000023841858,12031147008.0,1830.8424256097376,5.0,-0.005732052028179169,24576.0,13.59565544128418,2.067790383364354e-15,0.0,2.7053966522216797,-0.027053967118263245,0.13744544982910156,-0.027053965255618095,-1.862645149230957e-09,0.0,0.08293858170509338,0.5177620053291321,0.06940936271000808,-0.7434625029563904,0.1499304622411728,-0.6605238914489746,0.5367238521575928,2.2372214794158936,0.9969663619995117,,,,,,,
3332456000.0,87.25,-1.899999976158142,12031147008.0,1842.9598701550865,6.0,-0.013319477438926697,28672.0,15.818167209625244,1.8735013540549517e-15,0.0,2.704113483428955,-0.027041126042604446,0.18184629082679749,-0.027041133493185043,7.450580596923828e-09,0.0,-0.08513680100440979,0.5971024632453918,0.04355765006869261,-0.5062557458877563,0.10894610732793808,-0.5913925170898438,0.6105474829673767,2.2225117683410645,0.9971003532409668,,,,,,,
3381824000.0,84.26,-2.2200000286102295,12031147008.0,1835.9113604986878,7.0,-0.010524151846766472,32768.0,18.049211740493774,2.2065682614424986e-15,0.0,2.7023587226867676,-0.027023594826459885,0.16262608766555786,-0.027023587375879288,-7.450580596923828e-09,0.0,-0.042722780257463455,0.5687758326530457,0.06010618105983512,-0.42103832960128784,0.08949454873800278,-0.4637610912322998,0.5866805911064148,2.2310445308685303,0.9976561069488525,,,,,,,
3430928000.0,82.63,-2.200000047683716,12031147008.0,1863.5664968544754,8.0,-0.012304974719882011,36864.0,20.247147798538208,2.345346139520643e-15,0.0,2.7006709575653076,-0.02700670436024666,0.1452827900648117,-0.027006708085536957,3.725290298461914e-09,0.0,-0.07695640623569489,0.5335848331451416,0.03559716466165885,-0.42455387115478516,0.08122337609529495,-0.5015102624893188,0.543343186378479,2.1979360580444336,0.9968395233154297,,,,,,,
3480296000.0,83.16,-2.4600000381469727,12031147008.0,1815.9958512952335,9.0,-0.013478333130478859,40960.0,22.502659559249878,2.5049406993105094e-15,0.0,2.7008447647094727,-0.02700847014784813,0.17818352580070496,-0.02700844779610634,-2.2351741790771484e-08,0.0,-0.09099099040031433,0.590061604976654,0.04515096350067882,-0.4572812020778656,0.09653161466121674,-0.5482721328735352,0.6038511991500854,2.25551176071167,0.996950626373291,,,,,,,
3529400000.0,84.08,-1.9700000286102295,12031147008.0,1768.0861704660053,10.0,-0.008543726056814194,45056.0,24.819288730621338,2.5049406993105094e-15,0.0,2.700204849243164,-0.02700204588472843,0.1506996601819992,-0.02700204774737358,1.862645149230957e-09,0.0,-0.0010026870295405388,0.549064576625824,0.036041646130764216,-0.5861567854881287,0.1347637176513672,-0.5871594548225403,0.5592349171638489,2.31662917137146,0.997262716293335,,,,,,,
3578504000.0,85.78,-2.4000000953674316,12031147008.0,1872.7418800269686,11.0,-0.018334588035941124,49152.0,27.00645613670349,2.5049406993105094e-15,0.0,2.699821710586548,-0.02699822373688221,0.2150895595550537,-0.026998216286301613,-7.450580596923828e-09,0.0,-0.1086854636669159,0.6468915939331055,0.15591029206788143,-0.7183362245559692,0.1786225438117981,-0.8270216584205627,0.7041046023368835,2.1871674060821533,0.99692702293396,,,,,,,
3627872000.0,82.53,-2.7699999809265137,12031147008.0,1858.136692627781,12.0,-0.013551991432905197,53248.0,29.210814952850342,2.338407245616736e-15,0.0,2.70001220703125,-0.027000127360224724,0.20897522568702698,-0.027000121772289276,-5.587935447692871e-09,0.0,0.059880331158638,0.6437903642654419,0.10353562461245835,-1.06056547164917,0.2464265078306198,-1.0006850957870483,0.6799514889717102,2.2043588161468506,0.9970779418945312,,,,,,,
3676976000.0,81.22,-2.6600000858306885,12031147008.0,1873.7874751077763,13.0,-0.013504426926374435,57344.0,31.396761894226074,2.4147350785597155e-15,0.0,2.699789524078369,-0.0269978828728199,0.22662219405174255,-0.026997894048690796,1.1175870895385742e-08,0.0,0.056480590254068375,0.6709427833557129,0.048847378398366614,-1.2130547761917114,0.28982895612716675,-1.1565742492675781,0.6879555583000183,2.1859469413757324,0.9967746734619141,,,,,,,
3726080000.0,83.37,-2.7300000190734863,12031147008.0,1882.1078523934175,14.0,-0.011939607560634613,61440.0,33.57304525375366,1.9914625504213745e-15,0.0,2.7015559673309326,-0.027015570551156998,0.20559045672416687,-0.027015559375286102,-1.0710209608078003e-08,0.0,0.1017250120639801,0.6331909894943237,0.11170412921285922,-1.1325201988220215,0.26259908080101013,-1.0307950973510742,0.6718244552612305,2.176283359527588,0.9967193603515625,,,,,,,
3775448000.0,85.07,-2.5399999618530273,12031147008.0,1833.8642133831477,15.0,-0.01590951532125473,65536.0,35.80658030509949,1.7416623698807143e-15,0.0,2.704120397567749,-0.027041204273700714,0.20928721129894257,-0.027041204273700714,0.0,0.0,-0.006308246403932571,0.6470215320587158,0.06475146814559396,-0.8711467385292053,0.2006971687078476,-0.8774549961090088,0.6690449714660645,2.233535051345825,0.9977381229400635,,,,,,,
3824552000.0,81.68,-2.9200000762939453,12031147008.0,1861.1898428095124,16.0,-0.018685901537537575,69632.0,38.007323026657104,1.7486012637846216e-15,0.0,2.70462703704834,-0.027046281844377518,0.227505624294281,-0.027046270668506622,-1.1175870895385742e-08,0.0,-0.05434595048427582,0.6724345088005066,0.045950601725777585,-0.8216820955276489,0.17551441490650177,-0.8760280609130859,0.6884375810623169,2.200742721557617,0.9969375133514404,,,,,,,
3873920000.0,78.31,-3.190000057220459,12031147008.0,1845.2037530741995,17.0,-0.015304486267268658,73728.0,40.227132081985474,1.2073675392798577e-15,0.0,2.7061872482299805,-0.027061868458986282,0.20241788029670715,-0.02706187218427658,3.725290298461914e-09,0.0,-0.04723910614848137,0.6345884799957275,0.08637406064402509,-0.7404069304466248,0.12811487913131714,-0.7876460552215576,0.6639081239700317,2.219809055328369,0.9969544410705566,,,,,,,
3923024000.0,85.3,-3.0899999141693115,12031147008.0,1857.904799930355,18.0,-0.015263297595083714,77824.0,42.43176603317261,1.214306433183765e-15,0.0,2.7065391540527344,-0.027065381407737732,0.17763668298721313,-0.027065390720963478,8.381903171539307e-09,0.0,-0.08322575688362122,0.5902811884880066,0.12500343832062522,-0.750400185585022,0.13051718473434448,-0.8336259126663208,0.6310383677482605,2.204633951187134,0.9972212314605713,,,,,,,
3972128000.0,87.62,-2.7200000286102295,12031147008.0,1881.704011400716,19.0,-0.012211854569613934,81920.0,44.608516454696655,9.506284648352903e-16,0.0,2.7070043087005615,-0.027070052921772003,0.15821795165538788,-0.027070041745901108,-1.0244548320770264e-08,0.0,0.027623964473605156,0.5619162917137146,0.06424236003851669,-0.8301140069961548,0.10857149958610535,-0.8024900555610657,0.5808846950531006,2.176750421524048,0.9972052574157715,,,,,,,
4021496000.0,81.96,-2.940000057220459,12031147008.0,1820.3155955401717,20.0,-0.02024894207715988,86016.0,46.858675718307495,9.43689570931383e-16,0.0,2.707371711730957,-0.027073707431554794,0.22644560039043427,-0.02707371674478054,1.0244548320770264e-08,0.0,-0.10697358101606369,0.6644965410232544,0.0557177744671985,-0.9064387679100037,0.12336081266403198,-1.0134124755859375,0.6838202476501465,2.25015926361084,0.9969203472137451,,,,,,,
4070600000.0,86.0,-3.319999933242798,12031147008.0,1860.495677942497,21.0,-0.01610785350203514,90112.0,49.06023955345154,7.91033905045424e-16,0.0,2.7074036598205566,-0.02707403339445591,0.23103643953800201,-0.02707403525710106,1.862645149230957e-09,0.0,0.05070837587118149,0.6779481768608093,0.0389786064901716,-1.198792815208435,0.14148400723934174,-1.1480844020843506,0.6915602087974548,2.201563835144043,0.996870756149292,,,,,,,
4119704000.0,86.09,-3.0399999618530273,12031147008.0,1829.1749648988448,22.0,-0.013860944658517838,94208.0,51.299500465393066,7.7021722333370235e-16,0.0,2.7074389457702637,-0.02707439474761486,0.23229536414146423,-0.027074389159679413,-5.587935447692871e-09,0.0,0.10699665546417236,0.6732407808303833,0.08965999070926045,-1.3369739055633545,0.17799417674541473,-1.2299772500991821,0.7056161165237427,2.2392609119415283,0.9969391822814941,,,,,,,
4169072000.0,82.59,-2.6500000953674316,12031147008.0,1863.489077300133,23.0,-0.014137951657176018,98304.0,53.497527837753296,7.494005416219807e-16,0.0,2.707521915435791,-0.02707522176206112,0.19448620080947876,-0.02707521803677082,-3.725290298461914e-09,0.0,0.03411836177110672,0.622818648815155,0.08999257250395609,-1.141719102859497,0.16152578592300415,-1.1076008081436157,0.6528886556625366,2.1980273723602295,0.9968032836914062,,,,,,,
4218176000.0,87.95,-2.9800000190734863,12031147008.0,1842.4677226796848,24.0,-0.0171602051705122,102400.0,55.72063326835632,8.81239525796218e-16,0.0,2.7075304985046387,-0.02707529626786709,0.21860623359680176,-0.027075303718447685,7.450580596923828e-09,0.0,-0.0688118189573288,0.6577104330062866,0.1269072606304571,-1.0099079608917236,0.1747264713048935,-1.0787196159362793,0.7038896083831787,2.2231054306030273,0.9967942237854004,,,,,,,
4267544000.0,92.63,-2.7200000286102295,12031147008.0,1779.3259787299535,25.0,-0.008302261121571064,106496.0,58.02262854576111,6.314393452555578e-16,0.0,2.7076010704040527,-0.027076002210378647,0.15586936473846436,-0.027076009660959244,7.450580596923828e-09,0.0,0.07457436621189117,0.5534005761146545,0.014516322495669809,-0.9161758422851562,0.12330247461795807,-0.8416014909744263,0.5574615001678467,2.301995277404785,0.996922492980957,,,,,,,
4316648000.0,85.61,-2.3399999141693115,12031147008.0,1825.7265085498955,26.0,-0.01406487263739109,110592.0,60.2661190032959,7.840950111415168e-16,0.0,2.707552909851074,-0.027075525373220444,0.1767045110464096,-0.027075529098510742,2.7939677238464355e-09,0.0,0.004696318879723549,0.5945361852645874,0.08422378942363373,-0.8384960293769836,0.1323450803756714,-0.8337997198104858,0.6212747693061829,2.24349045753479,0.9967300891876221,,,,,,,
4365912000.0,87.14,-2.7300000190734863,12031147008.0,1818.9437535534787,27.0,-0.012272043153643608,114688.0,62.51797533035278,6.453171330633722e-16,0.0,2.707554340362549,-0.02707553654909134,0.15241576731204987,-0.027075542137026787,5.587935447692871e-09,0.0,-0.030534392222762108,0.5513378381729126,0.0658530503360264,-0.7267395257949829,0.11185760051012039,-0.7572739720344543,0.5704402923583984,2.2518563270568848,0.996978759765625,,,,,,,
4415112000.0,88.8,-2.640000104904175,12031147008.0,1834.9593372905242,28.0,-0.013451613485813141,118784.0,64.75017738342285,7.494005416219807e-16,0.0,2.7075271606445312,-0.027075285091996193,0.1799248456954956,-0.027075270190835,-1.4901161193847656e-08,0.0,-0.03718135505914688,0.5987944602966309,0.09283453899057348,-0.7017359137535095,0.11083940416574478,-0.7389172911643982,0.6286870241165161,2.2322020530700684,0.9969239234924316,,,,,,,
4464520000.0,86.45,-2.299999952316284,12031147008.0,1822.0349532174646,29.0,-0.01049940288066864,122880.0,66.99821329116821,9.922618282587337e-16,0.0,2.7074553966522217,-0.027074558660387993,0.13792745769023895,-0.027074553072452545,-5.587935447692871e-09,0.0,-0.016715336591005325,0.5250169634819031,0.1196320587500076,-0.6668370366096497,0.11213698238134384,-0.6835523843765259,0.5595529675483704,2.2480359077453613,0.9969189167022705,,,,,,,
4514056000.0,87.21,-2.319999933242798,12031147008.0,1821.6435362123862,30.0,-0.0116880526766181,126976.0,69.24673223495483,9.575673587391975e-16,0.0,2.7072722911834717,-0.027072735130786896,0.16281123459339142,-0.02707272209227085,-1.30385160446167e-08,0.0,-0.011635752394795418,0.5705844163894653,0.08204323495146038,-0.692624568939209,0.1078248992562294,-0.7042603492736816,0.595537006855011,2.248518943786621,0.9968564510345459,,,,,,,
4563576000.0,86.23,-2.549999952316284,12031147008.0,1866.4643435780697,31.0,-0.01608155108988285,131072.0,71.44125580787659,1.0200174038743626e-15,0.0,2.707050323486328,-0.02707049436867237,0.17619869112968445,-0.027070501819252968,7.450580596923828e-09,0.0,-0.04272834584116936,0.5921632051467896,0.11423425870810477,-0.7216414213180542,0.11853853613138199,-0.764369785785675,0.6291902661323547,2.194523572921753,0.996924877166748,,,,,,,
,,,,,,,,,,,,,,,,,,,,,,,,,,0.0005010191816836596,0.22749972343444824,0.22331814467906952,0.0005010191816836596,0.22749972343444824,0.22331814467906952,
,,,,,,,,,,,,,,,,,,,,,,,,,,0.00010884169023483992,0.189631849527359,0.18846069276332855,0.00010884169023483992,0.189631849527359,0.18846069276332855,
,,,,,,,,,,,,,,,,,,,,,,,,,,8.962232095655054e-05,0.16828404366970062,0.1697772741317749,8.962232095655054e-05,0.16828404366970062,0.1697772741317749,
,,,,,,,,,,,,,,,,,,,,,,,,,,8.140764839481562e-05,0.15676763653755188,0.15864992141723633,8.140764839481562e-05,0.15676763653755188,0.15864992141723633,
,,,,,,,,,,,,,,,,,,,,,,,,,,7.151786121539772e-05,0.14963126182556152,0.15223689377307892,7.151786121539772e-05,0.14963126182556152,0.15223689377307892,
,,,,,,,,,,,,,,,,,,,,,,,,,,6.744616985088214e-05,0.14193196594715118,0.1451248973608017,6.744616985088214e-05,0.14193196594715118,0.1451248973608017,
,,,,,,,,,,,,,,,,,,,,,,,,,,,,,,,,-3.54
4582464000.0,84.1,-2.609999895095825,11990518784.0,17.0402220593113,32.0,-0.013095510192215443,135168.0,311.8137102127075,1.9012569296705806e-15,0.0,2.7070364952087402,-0.027070363983511925,0.13768495619297028,-0.027070363983511925,0.0,0.0,-0.007254321128129959,0.524770975112915,0.472989906090752,-0.7945396900177002,0.42134422063827515,-0.8017939329147339,0.7228701114654541,240.37245440483093,0.9973948001861572,,,,,,,
4582464000.0,85.76,-2.7799999713897705,12041169408.0,1781.5370160686944,33.0,-0.015942495316267014,139264.0,314.11284852027893,1.8318679906315083e-15,0.0,2.7070093154907227,-0.027070103213191032,0.14681100845336914,-0.027070092037320137,-1.1175870895385742e-08,0.0,-0.021491631865501404,0.5415087342262268,0.5979655283839822,-0.822323203086853,0.47481733560562134,-0.8438147902488708,0.8540313243865967,2.299138307571411,0.9970488548278809,,,,,,,
4582464000.0,84.9,-2.4000000953674316,12041169408.0,1847.482907319314,34.0,-0.007637133356183767,143360.0,316.32991909980774,1.970645868709653e-15,0.0,2.7068357467651367,-0.02706833742558956,0.11837878078222275,-0.027068356052041054,1.862645149230957e-08,0.0,0.10018061846494675,0.4762108623981476,0.5540483607786255,-0.864533543586731,0.4459986984729767,-0.7643529772758484,0.7131081223487854,2.2170705795288086,0.9970693588256836,,,,,,,
4582464000.0,84.34,-2.8299999237060547,12041169408.0,1758.454585466252,35.0,-0.023104965686798096,147456.0,318.65923714637756,2.1024848528838902e-15,0.0,2.7061004638671875,-0.02706100419163704,0.18064135313034058,-0.02706100419163704,0.0,0.0,-0.039426710456609726,0.5998467206954956,0.6137158510926302,-1.080803632736206,0.6136736869812012,-1.1202304363250732,0.9651322364807129,2.329318046569824,0.9969422817230225,,,,,,,
4582464000.0,84.91,-3.240000009536743,12041169408.0,1843.3808746812283,36.0,-0.012863913550972939,151552.0,320.8812413215637,1.8318679906315083e-15,0.0,2.7052342891693115,-0.027052339166402817,0.1392344832420349,-0.027052342891693115,3.725290298461914e-09,0.0,0.09184381365776062,0.5197111368179321,0.6036323801060509,-1.0500445365905762,0.6104562282562256,-0.9582006931304932,0.8254920244216919,2.2220041751861572,0.9970831871032715,,,,,,,
4582464000.0,87.35,-2.7100000381469727,12041169408.0,1758.890803480337,37.0,-0.010212356224656105,155648.0,323.2099816799164,2.2551405187698492e-15,0.0,2.704634189605713,-0.027046360075473785,0.12785111367702484,-0.027046341449022293,-1.862645149230957e-08,0.0,0.08769465982913971,0.4980687201023102,0.6627573636728004,-0.9956557750701904,0.6275758743286133,-0.9079611301422119,0.8576656579971313,2.328740358352661,0.9971809387207031,,,,,,,
4582464000.0,86.52,-2.309999942779541,12041169408.0,1815.0292735390383,38.0,-0.011921470053493977,159744.0,325.46669459342957,2.338407245616736e-15,0.0,2.703629970550537,-0.027036311104893684,0.15376949310302734,-0.02703629992902279,-1.1175870895385742e-08,0.0,0.13346756994724274,0.538327157497406,0.6033260261289456,-0.9762518405914307,0.6523689031600952,-0.8427842855453491,0.8547309041023254,2.2567129135131836,0.9969532489776611,,,,,,,
4582464000.0,88.04,-2.4600000381469727,12041169408.0,1860.6965777543692,39.0,-0.014870177954435349,163840.0,327.66802072525024,2.338407245616736e-15,0.0,2.7023184299468994,-0.0270231906324625,0.16593611240386963,-0.027023183181881905,-7.450580596923828e-09,0.0,0.001879282295703888,0.5761507749557495,0.5798659946968521,-0.9344598054885864,0.6484586596488953,-0.9325805306434631,0.8888782262802124,2.2013261318206787,0.9969890117645264,,,,,,,
4582464000.0,88.34,-2.390000104904175,12041169408.0,1887.9103677508167,40.0,-0.009331983514130116,167936.0,329.83761525154114,2.5673907444456745e-15,0.0,2.7011518478393555,-0.027011502534151077,0.14775894582271576,-0.02701151743531227,1.4901161193847656e-08,0.0,0.157093808054924,0.5204858779907227,0.5866512355986526,-0.901780903339386,0.640823483467102,-0.7446870803833008,0.8095628619194031,2.1695945262908936,0.997025728225708,,,,,,,
4582464000.0,80.55,-2.25,12041169408.0,1818.079465281614,41.0,-0.015343895182013512,172032.0,332.0905420780182,2.67841304690819e-15,0.0,2.6971538066864014,-0.026971545070409775,0.13206444680690765,-0.026971537619829178,-7.450580596923828e-09,0.0,-0.018736770376563072,0.5136557221412659,0.6413795591370051,-0.8436694741249084,0.6157726049423218,-0.8624061942100525,0.8577379584312439,2.252926826477051,0.9970834255218506,,,,,,,
4582464000.0,84.63,-2.6700000762939453,12041169408.0,1864.5927618085082,42.0,-0.013049710541963577,176128.0,334.28726840019226,3.5318969970887792e-15,0.0,2.6921706199645996,-0.026921702548861504,0.13834500312805176,-0.026921706274151802,3.725290298461914e-09,0.0,0.005880650132894516,0.5260446667671204,0.5524236286551523,-0.6277749538421631,0.5079548954963684,-0.6218942403793335,0.78630131483078,2.1967263221740723,0.9968283176422119,,,,,,,
4582464000.0,86.05,-2.880000114440918,12041169408.0,1873.2470677953775,43.0,-0.013042940758168697,180224.0,336.4738459587097,3.566591466608315e-15,0.0,2.6845762729644775,-0.026845773681998253,0.10966764390468597,-0.026845762506127357,-1.1175870895385742e-08,0.0,0.02566433511674404,0.46768584847450256,0.6083080333120721,-0.5898070335388184,0.5671932697296143,-0.5641427040100098,0.7472774386405945,2.186577558517456,0.9973676204681396,,,,,,,
4582464000.0,82.6,-2.440000057220459,12041169408.0,1870.5297411049537,44.0,-0.011362617835402489,184320.0,338.66359996795654,4.229255834431456e-15,0.0,2.6664962768554688,-0.026664962992072105,0.12291015684604645,-0.026664962992072105,0.0,0.0,0.025538969784975052,0.4952049255371094,0.46683452239177203,-0.5912257432937622,0.5112064480781555,-0.565686821937561,0.678193986415863,2.189754009246826,0.9971029758453369,,,,,,,
4582464000.0,81.27,-1.9199999570846558,12041169408.0,1853.8110170950085,45.0,-0.010007543489336967,188416.0,340.87310242652893,4.893654925730573e-15,0.0,2.6420130729675293,-0.026420138776302338,0.09883878380060196,-0.02642012946307659,-9.313225746154785e-09,0.0,0.02461817115545273,0.4439815878868103,0.4475832984223249,-0.5191910266876221,0.4581293761730194,-0.49457281827926636,0.5973536372184753,2.2095024585723877,0.9969489574432373,,,,,,,
4582464000.0,78.61,-1.5199999809265137,12041169408.0,1778.3914051904167,46.0,-0.006485396064817905,192512.0,343.1763074398041,5.251007961781795e-15,0.0,2.6144819259643555,-0.02614481747150421,0.06868816912174225,-0.02614481933414936,1.862645149230957e-09,0.0,0.054879527539014816,0.36660248041152954,0.451401400611821,-0.38813015818595886,0.3514929413795471,-0.33325061202049255,0.49495765566825867,2.3032050132751465,0.9968204498291016,,,,,,,
4582464000.0,75.81,-1.0,12041169408.0,1866.1304289547438,47.0,-0.004778481088578701,196608.0,345.3712236881256,5.322131624296844e-15,0.0,2.5567703247070312,-0.025567691773176193,0.07122325897216797,-0.02556770294904709,1.1175870895385742e-08,0.0,0.02184935286641121,0.3768339157104492,0.4346578407581688,-0.36467570066452026,0.336073100566864,-0.34282630681991577,0.5011806488037109,2.194916248321533,0.9968466758728027,,,,,,,
4582464000.0,77.45,-1.2300000190734863,12041169408.0,1860.0136550726736,48.0,-0.009371471591293812,200704.0,347.57335805892944,6.661338147750939e-15,0.0,2.5231831073760986,-0.025231827050447464,0.08342865109443665,-0.025231830775737762,3.725290298461914e-09,0.0,0.006229953840374947,0.4084840416908264,0.3934520869413538,-0.37074294686317444,0.3143821954727173,-0.36451297998428345,0.5244964361190796,2.202134370803833,0.9970636367797852,,,,,,,
4585088000.0,78.42,-1.3799999952316284,12041169408.0,1829.741100739304,49.0,-0.007116452790796757,204800.0,349.8119261264801,6.971853649950788e-15,0.0,2.513181209564209,-0.025131812319159508,0.06410267949104309,-0.025131812319159508,0.0,0.0,0.015605623833835125,0.3577611744403839,0.5016240699114066,-0.34470540285110474,0.3207756280899048,-0.32909977436065674,0.5067744851112366,2.238568067550659,0.9968538284301758,,,,,,,
4585088000.0,76.42,-1.0399999618530273,12041169408.0,1884.8688732380922,50.0,-0.00572150619700551,208896.0,351.9850215911865,6.6145006138995655e-15,0.0,2.5230801105499268,-0.02523079700767994,0.07502268254756927,-0.025230800732970238,3.725290298461914e-09,0.0,0.01549670659005642,0.38709402084350586,0.25324531565767505,-0.2894099950790405,0.24182377755641937,-0.27391329407691956,0.4479478895664215,2.173095464706421,0.9972343444824219,,,,,,,
4585088000.0,77.2,-0.9399999976158142,12041169408.0,1888.2301240284278,51.0,-0.006513557396829128,212992.0,354.154248714447,6.42194630806614e-15,0.0,2.5179643630981445,-0.025179650634527206,0.06836333125829697,-0.02517964318394661,-7.450580596923828e-09,0.0,-0.002212212421000004,0.3698042035102844,0.4087291615592926,-0.2852528691291809,0.25542351603507996,-0.28746509552001953,0.48092642426490784,2.169227123260498,0.9967122077941895,,,,,,,
4585088000.0,78.46,-1.1200000047683716,12041169408.0,1865.630084871612,52.0,-0.006424343213438988,217088.0,356.34975361824036,6.755013215453687e-15,0.0,2.512755870819092,-0.025127563625574112,0.07530947029590607,-0.025127558037638664,-4.6566128730773926e-09,0.0,-0.0065068695694208145,0.3880893886089325,0.43476794776444194,-0.3143428564071655,0.2770445644855499,-0.3208497166633606,0.5162004828453064,2.195504903793335,0.9969358444213867,,,,,,,
4585088000.0,78.38,-1.0099999904632568,12041169408.0,1784.8231924891409,53.0,-0.0050048064440488815,221184.0,358.6446588039398,6.663072871226916e-15,0.0,2.5125927925109863,-0.02512592449784279,0.0604642853140831,-0.025125928223133087,3.725290298461914e-09,0.0,0.0364108607172966,0.34587863087654114,0.4673645237420204,-0.30110985040664673,0.28034481406211853,-0.2646990120410919,0.4739239811897278,2.294905185699463,0.9971325397491455,,,,,,,
4585088000.0,77.21,-1.1200000047683716,12041169408.0,1858.6712307959285,54.0,-0.007813110947608948,225280.0,360.84838366508484,6.699502064222429e-15,0.0,2.5223851203918457,-0.025223854929208755,0.06011287122964859,-0.025223851203918457,-3.725290298461914e-09,0.0,0.01750541850924492,0.3463359475135803,0.5304102101941512,-0.29261714220046997,0.2926180958747864,-0.27511173486709595,0.5054035782814026,2.2037248611450195,0.9968738555908203,,,,,,,
4585088000.0,75.67,-0.8500000238418579,12041169408.0,1849.2358802284502,55.0,-0.002016340382397175,229376.0,363.06335258483887,5.521624824034177e-15,0.0,2.5725977420806885,-0.02572597749531269,0.06230617314577103,-0.02572597749531269,0.0,0.0,0.06974469125270844,0.3460885286331177,0.49057333536938363,-0.2902269959449768,0.3027319312095642,-0.22048228979110718,0.4848935306072235,2.2149689197540283,0.9970972537994385,,,,,,,
4585088000.0,78.78,-0.5600000023841858,12041169408.0,1830.5242546310592,56.0,-0.005056085530668497,233472.0,365.3009629249573,5.882447307037353e-15,0.0,2.5863094329833984,-0.02586309239268303,0.07260966300964355,-0.02586309425532818,2.7939677238464355e-09,0.0,0.016881518065929413,0.3807488977909088,0.5243411995509553,-0.2875151038169861,0.3526996076107025,-0.27063363790512085,0.5520658493041992,2.237610340118408,0.9970293045043945,,,,,,,
4585088000.0,79.35,-0.6800000071525574,12041169408.0,1868.108896572092,57.0,-0.0016908684046939015,237568.0,367.49355459213257,5.9674487573602164e-15,0.0,2.598137378692627,-0.025981375947594643,0.0668330118060112,-0.025981374084949493,-1.862645149230957e-09,0.0,0.050125643610954285,0.36219534277915955,0.5183930837965466,-0.25829678773880005,0.34761571884155273,-0.20817111432552338,0.521911084651947,2.192591667175293,0.9968883991241455,,,,,,,
4585088000.0,85.0,-0.8700000047683716,12041169408.0,1890.892595492179,58.0,-0.00644258176907897,241664.0,369.6597273349762,5.509481759702339e-15,0.0,2.6212077140808105,-0.026212066411972046,0.06996257603168488,-0.026212075725197792,8.381903171539307e-09,0.0,0.015460249036550522,0.3737916648387909,0.6065271344762945,-0.25990116596221924,0.4082026481628418,-0.2444409430027008,0.595898449420929,2.166172742843628,0.997107744216919,,,,,,,
4585088000.0,84.7,-1.159999966621399,12041169408.0,1843.8339313317958,59.0,-0.005901952274143696,245760.0,371.8811855316162,5.469583119754873e-15,0.0,2.6079187393188477,-0.026079194620251656,0.0628405213356018,-0.02607918716967106,-7.450580596923828e-09,0.0,0.0024370206519961357,0.3545501232147217,0.6030682089965926,-0.23552313446998596,0.43080610036849976,-0.23308612406253815,0.5627554655075073,2.2214581966400146,0.9969606399536133,,,,,,,
4585088000.0,82.83,-0.6299999952316284,12041169408.0,1848.966603190019,60.0,-0.0028467061929404736,249856.0,374.09647703170776,5.4279497563314294e-15,0.0,2.6058249473571777,-0.026058245450258255,0.06345798075199127,-0.026058249175548553,3.725290298461914e-09,0.0,0.054932720959186554,0.35203495621681213,0.49501734292596333,-0.1859421730041504,0.4202447533607483,-0.13100945949554443,0.4953903555870056,2.2152915000915527,0.9971752166748047,,,,,,,
4585088000.0,78.51,-0.7900000214576721,12041169408.0,1876.069813916045,61.0,-0.006046966649591923,253952.0,376.2797646522522,6.7931771319251766e-15,0.0,2.5573244094848633,-0.02557324431836605,0.08217814564704895,-0.02557324431836605,-2.3283064365386963e-10,0.0,-0.03447441756725311,0.40398967266082764,0.6035966103270012,-0.16173294186592102,0.46527591347694397,-0.19620737433433533,0.6416550278663635,2.1832876205444336,0.9968938827514648,,,,,,,
4585088000.0,76.05,-0.8999999761581421,12041169408.0,1840.7865237113967,62.0,-0.005381816066801548,258048.0,378.50490045547485,6.951036968239066e-15,0.0,2.5193862915039062,-0.025193870067596436,0.05563884973526001,-0.02519386261701584,-7.450580596923828e-09,0.0,-0.012645106762647629,0.33338406682014465,0.557507051819484,-0.08436708152294159,0.38093075156211853,-0.09701219201087952,0.5011776685714722,2.2251358032226562,0.9970047473907471,,,,,,,
4585088000.0,81.79,-0.8600000143051147,12041169408.0,1835.2982659076863,63.0,-0.004712552763521671,262144.0,380.73669028282166,7.639722188201858e-15,0.0,2.4865918159484863,-0.024865921586751938,0.06568001210689545,-0.02486591786146164,-3.725290298461914e-09,0.0,-0.017818689346313477,0.3620421588420868,0.502573072417168,-0.07182706892490387,0.40167173743247986,-0.08964575827121735,0.513327419757843,2.2317898273468018,0.9969918727874756,,,,,,,
,,,,,,,,,,,,,,,,,,,,,,,,,,0.03980633616447449,0.21719695627689362,0.15567751228809357,0.03980633616447449,0.21719695627689362,0.15567751228809357,
,,,,,,,,,,,,,,,,,,,,,,,,,,0.009852779097855091,0.14582839608192444,0.1203051507472992,0.009852779097855091,0.14582839608192444,0.1203051507472992,
,,,,,,,,,,,,,,,,,,,,,,,,,,0.007763933390378952,0.12299817055463791,0.11224470287561417,0.007763933390378952,0.12299817055463791,0.11224470287561417,
,,,,,,,,,,,,,,,,,,,,,,,,,,0.0064372713677585125,0.11164985597133636,0.1055324450135231,0.0064372713677585125,0.11164985597133636,0.1055324450135231,
,,,,,,,,,,,,,,,,,,,,,,,,,,0.005331800784915686,0.10731449723243713,0.10273829847574234,0.005331800784915686,0.10731449723243713,0.10273829847574234,
,,,,,,,,,,,,,,,,,,,,,,,,,,0.004589400719851255,0.10234683007001877,0.09876617789268494,0.004589400719851255,0.10234683007001877,0.09876617789268494,
,,,,,,,,,,,,,,,,,,,,,,,,,,,,,,,,-2.17
4598584000.0,80.48,-0.8100000023841858,11990521856.0,17.032650737618336,64.0,-0.0031130982097238302,266240.0,621.2159945964813,6.1825544683813405e-15,0.0,2.512552261352539,-0.025125546380877495,0.0558466762304306,-0.025125522166490555,-2.421438694000244e-08,0.0,0.07604977488517761,0.32547757029533386,0.6540415587615244,-0.34507453441619873,0.4403223693370819,-0.2690247893333435,0.553361713886261,240.47930431365967,0.9968507289886475,,,,,,,
4598584000.0,79.19,-0.550000011920929,12041169408.0,1841.43329169533,65.0,-0.004971744026988745,270336.0,623.4403488636017,6.864300794440226e-15,0.0,2.505809783935547,-0.025058096274733543,0.05861698463559151,-0.025058098137378693,1.862645149230957e-09,0.0,0.02998581901192665,0.34112057089805603,0.7105039551440289,-0.3677665591239929,0.4836379587650299,-0.33778074383735657,0.6339960694313049,2.2243542671203613,0.9972095489501953,,,,,,,
4598584000.0,78.96,-0.7599999904632568,12041169408.0,1792.9220974634864,66.0,-0.004871896468102932,274432.0,625.7248876094818,7.251144129583054e-15,0.0,2.449120283126831,-0.0244912039488554,0.053309570997953415,-0.02449120208621025,-1.862645149230957e-09,0.0,0.05793334171175957,0.32138463854789734,0.6241404133873343,-0.3041802644729614,0.41984909772872925,-0.24624690413475037,0.5242184400558472,2.284538745880127,0.996955394744873,,,,,,,
4598584000.0,78.12,-0.7599999904632568,12041169408.0,1806.6690766988393,67.0,-0.0033759688958525658,278528.0,627.9920432567596,6.843484112728504e-15,0.0,2.4625399112701416,-0.02462540753185749,0.04307432472705841,-0.024625398218631744,-9.313225746154785e-09,0.0,0.061397235840559006,0.2870525121688843,0.6706660318611892,-0.2437325119972229,0.3888767957687378,-0.1823352724313736,0.5001993179321289,2.267155647277832,0.9970500469207764,,,,,,,
4598584000.0,80.06,-0.6499999761581421,12041169408.0,1870.241400579801,68.0,-0.0049066669307649136,282624.0,630.1821348667145,7.0551203767976745e-15,0.0,2.3912668228149414,-0.023912668228149414,0.03922414779663086,-0.023912668228149414,0.0,0.0,0.019460255280137062,0.2794434726238251,0.7609075001677328,-0.24852141737937927,0.4347521662712097,-0.22906115651130676,0.5714931488037109,2.190091609954834,0.9971790313720703,,,,,,,
4598584000.0,81.27,-0.5799999833106995,12041169408.0,1844.1318038301126,69.0,-0.0035159520339220762,286720.0,632.403234243393,7.239001065251216e-15,0.0,2.3876142501831055,-0.023876149207353592,0.04633210226893425,-0.023876141756772995,-7.450580596923828e-09,0.0,0.029749363660812378,0.3029877543449402,0.7468100903316616,-0.25349828600883484,0.4689513146877289,-0.22374892234802246,0.6021461486816406,2.221099376678467,0.9969534873962402,,,,,,,
4598584000.0,80.7,-0.7900000214576721,12041169408.0,1863.815576756589,70.0,-0.00505149457603693,290816.0,634.6008765697479,8.040443311152501e-15,0.0,2.374483585357666,-0.023744838312268257,0.049610331654548645,-0.02374483458697796,-3.725290298461914e-09,0.0,0.01472497172653675,0.31468716263771057,0.7381516546373856,-0.21323232352733612,0.47485047578811646,-0.19850735366344452,0.6149702668190002,2.1976423263549805,0.9969890117645264,,,,,,,
4598584000.0,74.9,-0.8399999737739563,12041169408.0,1807.9191443573393,71.0,-0.007302788086235523,294912.0,636.8664646148682,7.126244039312724e-15,0.0,2.373547315597534,-0.023735465481877327,0.036622222512960434,-0.023735472932457924,7.450580596923828e-09,0.0,-0.002706953790038824,0.2706565856933594,0.7881595035474674,-0.16262394189834595,0.4776817560195923,-0.1653308868408203,0.5880498290061951,2.2655880451202393,0.997161865234375,,,,,,,
4598584000.0,74.43,-0.6700000166893005,12041169408.0,1880.5318140680613,72.0,-0.002009493764489889,299008.0,639.0445718765259,8.28503932126523e-15,0.0,2.3326172828674316,-0.02332618646323681,0.039218638092279434,-0.023326171562075615,-1.4901161193847656e-08,0.0,0.05389590188860893,0.27486535906791687,0.5762736607363987,-0.11658433079719543,0.3916053771972656,-0.0626884326338768,0.42225736379623413,2.178107261657715,0.997244119644165,,,,,,,
4598584000.0,83.1,-0.6800000071525574,12041169408.0,1865.4337898432764,73.0,-0.0015405400190502405,303104.0,641.2403078079224,8.585146482609218e-15,0.0,2.3729159832000732,-0.023729173466563225,0.06845787167549133,-0.02372915856540203,-1.4901161193847656e-08,0.0,0.033901721239089966,0.3685099482536316,0.5583980850812948,-0.08476325869560242,0.40695029497146606,-0.05086153373122215,0.5545411109924316,2.1957359313964844,0.9969706535339355,,,,,,,
4598584000.0,81.72,-0.3799999952316284,12041169408.0,1794.9706987086352,74.0,-0.0022576479241251945,307200.0,643.5222392082214,7.499209586647737e-15,0.0,2.463819980621338,-0.02463820017874241,0.0466095432639122,-0.02463820017874241,0.0,0.0,0.027744384482502937,0.3040919601917267,0.6436828080394317,-0.02722231298685074,0.4285133481025696,0.0005220724269747734,0.509432315826416,2.2819314002990723,0.9968428611755371,,,,,,,
4598584000.0,77.4,-0.27000001072883606,12041169408.0,1855.6285361982095,75.0,-0.000238432374317199,311296.0,645.7295775413513,7.096753740221118e-15,0.0,2.5257821083068848,-0.025257810950279236,0.05388093739748001,-0.025257820263504982,9.313225746154785e-09,0.0,-0.01608254387974739,0.32791686058044434,0.6959158053057526,-0.021534930914640427,0.5072543621063232,-0.03761747106909752,0.5946574211120605,2.207338333129883,0.9973170757293701,,,,,,,
4598584000.0,77.97,0.03999999910593033,12041169408.0,1862.0742216730614,76.0,-0.0010765851475298405,315392.0,647.9292750358582,7.304920557338335e-15,0.0,2.5423946380615234,-0.025423943996429443,0.055878449231386185,-0.025423945859074593,1.862645149230957e-09,0.0,-0.0033907098695635796,0.3343242108821869,0.5982381276928407,0.027789629995822906,0.4564721882343292,0.02439892292022705,0.5274526476860046,2.199697494506836,0.9972233772277832,,,,,,,
4598584000.0,83.36,-0.3400000035762787,12041169408.0,1872.8698868791057,77.0,-0.004074851982295513,319488.0,650.1162929534912,8.507083926190262e-15,0.0,2.537383556365967,-0.025373831391334534,0.09469449520111084,-0.025373835116624832,3.725290298461914e-09,0.0,-0.0386023074388504,0.433525949716568,0.5925112147133823,-0.012335987761616707,0.4771925210952759,-0.05093829706311226,0.6791368126869202,2.1870179176330566,0.9970998764038086,,,,,,,
4598584000.0,86.82,-0.27000001072883606,12041169408.0,1873.5821040356373,78.0,0.00132179690990597,323584.0,652.3024795055389,8.333611578592581e-15,0.0,2.567969799041748,-0.02567969262599945,0.07321435213088989,-0.0256796982139349,6.51925802230835e-09,0.0,0.04420148953795433,0.38014495372772217,0.4383465046549204,0.013960709795355797,0.48117876052856445,0.05816219747066498,0.5072417855262756,2.1861865520477295,0.9972472190856934,,,,,,,
4598584000.0,78.03,0.009999999776482582,12041169408.0,1797.6106437776143,79.0,-0.0014458479126915336,327680.0,654.5810596942902,8.5192269905221e-15,0.0,2.6114425659179688,-0.02611442096531391,0.07357814908027649,-0.02611442469060421,3.725290298461914e-09,0.0,-0.020111961290240288,0.3831287622451782,0.44145740130111744,0.03459984064102173,0.42314475774765015,0.014487873762845993,0.51264488697052,2.2785801887512207,0.997173547744751,,,,,,,
4598584000.0,75.36,-0.05999999865889549,12041169408.0,1828.3229153607751,80.0,0.001087508862838149,331776.0,656.8213641643524,9.750880658465633e-15,0.0,2.5885353088378906,-0.025885358452796936,0.05582732707262039,-0.02588535286486149,-4.6566128730773926e-09,0.0,0.009724813513457775,0.3340469002723694,0.4082087606427728,0.06301068514585495,0.3399800956249237,0.0727354884147644,0.43423333764076233,2.240304470062256,0.9973456859588623,,,,,,,
4598584000.0,81.0,-0.07000000029802322,12041169408.0,1882.599539537631,81.0,-0.002665239153429866,335872.0,658.9970791339874,1.04638520070921e-14,0.0,2.509922981262207,-0.02509923279285431,0.048694588243961334,-0.02509922906756401,-4.6566128730773926e-09,0.0,0.004875788930803537,0.31207239627838135,0.536191675019011,0.00868389941751957,0.37634146213531494,0.013559688813984394,0.45823270082473755,2.1757149696350098,0.9970049858093262,,,,,,,
4598584000.0,78.76,-0.20000000298023224,12041169408.0,1829.91943010038,82.0,0.0004860468325205147,339968.0,661.2354290485382,1.165387231161219e-14,0.0,2.502762794494629,-0.025027627125382423,0.04413522034883499,-0.025027627125382423,0.0,0.0,0.02306404709815979,0.29624298214912415,0.6124620051849137,0.0010634586215019226,0.3766562342643738,0.024127503857016563,0.47587287425994873,2.2383499145507812,0.996849775314331,,,,,,,
4598584000.0,78.58,-0.009999999776482582,12041169408.0,1838.5108659173875,83.0,-0.0017037702491506934,344064.0,663.4633190631866,1.1331213745080504e-14,0.0,2.500251293182373,-0.02500251494348049,0.07659024000167847,-0.025002513080835342,-2.2118911147117615e-09,0.0,-0.027824776247143745,0.39044010639190674,0.4677809925443075,-0.017862506210803986,0.3614782989025116,-0.04568728059530258,0.5351914763450623,2.2278900146484375,0.9969875812530518,,,,,,,
4598584000.0,82.53,-0.12999999523162842,12041169408.0,1850.0921966759902,84.0,-0.0015852206852287054,348160.0,665.6772627830505,1.1541115285673698e-14,0.0,2.5377726554870605,-0.025377744808793068,0.0848967581987381,-0.025377726182341576,-1.862645149230957e-08,0.0,-0.016724811866879463,0.4117707908153534,0.45081729042485275,-0.03551556169986725,0.3687390983104706,-0.05224037170410156,0.5556446313858032,2.2139437198638916,0.9970266819000244,,,,,,,
4598584000.0,83.99,-0.03999999910593033,12041169408.0,1819.6340414814051,85.0,0.0035426286049187183,352256.0,667.9282648563385,1.0977330155981235e-14,0.0,2.516094207763672,-0.025160936638712883,0.048463448882102966,-0.02516094222664833,5.587935447692871e-09,0.0,0.048710327595472336,0.30753421783447266,0.34377372672643935,0.05184222012758255,0.20941726863384247,0.10055254399776459,0.3796353340148926,2.251002073287964,0.9969818592071533,,,,,,,
4598584000.0,84.29,0.05000000074505806,12041169408.0,1851.7543171102755,86.0,-0.0003669274738058448,356352.0,670.1402213573456,1.1613973671664723e-14,0.0,2.543302536010742,-0.025433022528886795,0.09720847010612488,-0.025433024391531944,1.862645149230957e-09,0.0,-0.019745510071516037,0.44053879380226135,0.4002648766576028,0.02680094540119171,0.25270771980285645,0.007055438123643398,0.5688586831092834,2.21195650100708,0.9971234798431396,,,,,,,
4598584000.0,81.36,-0.05999999865889549,12041169408.0,1866.5791226424617,87.0,-0.0023290577810257673,360448.0,672.3346099853516,1.1803058530546195e-14,0.0,2.544257164001465,-0.025442570447921753,0.06765353679656982,-0.025442570447921753,0.0,0.0,-0.00716365035623312,0.3678162097930908,0.3742616242031436,-0.01259931642562151,0.25065383315086365,-0.01976296678185463,0.46498021483421326,2.1943886280059814,0.9970545768737793,,,,,,,
4598584000.0,84.9,-0.09000000357627869,12041169408.0,1822.8923690576626,88.0,0.001228750217705965,364544.0,674.5815885066986,1.1589687543001048e-14,0.0,2.5490529537200928,-0.0254905354231596,0.07110489159822464,-0.02549052983522415,-5.587935447692871e-09,0.0,0.025029094889760017,0.37632155418395996,0.2551148139454651,0.006431573536247015,0.27248767018318176,0.03146066516637802,0.43602803349494934,2.246978521347046,0.9972348213195801,,,,,,,
4598584000.0,86.13,-0.019999999552965164,12041169408.0,1876.6397301638053,89.0,-0.0018467799527570605,368640.0,676.7642130851746,1.0722325805012645e-14,0.0,2.560626745223999,-0.02560625597834587,0.08116630464792252,-0.025606267154216766,1.1175870895385742e-08,0.0,-0.007971390150487423,0.40287551283836365,0.4475822505130206,-0.05329357832670212,0.34456005692481995,-0.06126496568322182,0.5420471429824829,2.182624578475952,0.9970569610595703,,,,,,,
4598584000.0,80.74,-0.15000000596046448,12041169408.0,1842.2818028462505,90.0,0.0009878941345959902,372736.0,678.9875428676605,1.128437621122913e-14,0.0,2.5662121772766113,-0.02566211298108101,0.0769413411617279,-0.025662120431661606,6.51925802230835e-09,0.0,0.010367128066718578,0.3921896815299988,0.3566389709851123,0.016868572682142258,0.2595849335193634,0.027235697954893112,0.48895493149757385,2.223329782485962,0.9972004890441895,,,,,,,
4598584000.0,79.11,0.0,12041169408.0,1862.682921788948,91.0,0.0004948027199134231,376832.0,681.1865215301514,1.1313866510320736e-14,0.0,2.5747928619384766,-0.02574792504310608,0.0796804130077362,-0.025747928768396378,3.725290298461914e-09,0.0,0.0013626329600811005,0.3992466628551483,0.40037777386651974,-0.009835341945290565,0.2901254892349243,-0.008472714573144913,0.515587568283081,2.1989786624908447,0.9969263076782227,,,,,,,
4598584000.0,82.6,0.18000000715255737,12041169408.0,1858.4956978958705,92.0,0.0006195268360897899,380928.0,683.3904545307159,1.133294846855648e-14,0.0,2.5829129219055176,-0.02582913637161255,0.09276053309440613,-0.025829128921031952,-7.450580596923828e-09,0.0,0.009208349511027336,0.4306757152080536,0.30748634141921427,-0.011769852600991726,0.32421642541885376,-0.002561503555625677,0.5175307989120483,2.203933000564575,0.9984612464904785,,,,,,,
4598584000.0,85.2,0.3199999928474426,12041169408.0,1791.6351260353993,93.0,0.003726404160261154,385024.0,685.676634311676,1.0848960618758952e-14,0.0,2.5613698959350586,-0.02561371587216854,0.05135122314095497,-0.025613699108362198,-1.6763806343078613e-08,0.0,0.0662313923239708,0.313591867685318,0.3796184915433026,0.02199111506342888,0.33418288826942444,0.08822251856327057,0.3981395661830902,2.286179780960083,0.9971513748168945,,,,,,,
4598584000.0,78.58,0.4099999964237213,12041169408.0,1872.899696409151,94.0,0.0014937836676836014,389120.0,687.8636174201965,9.945169687775035e-15,0.0,2.589097023010254,-0.02589096873998642,0.06565959751605988,-0.02589096873998642,0.0,0.0,0.002909524366259575,0.3624124825000763,0.6061961259927291,0.022854499518871307,0.36328190565109253,0.02576402574777603,0.5775148272514343,2.186983108520508,0.9970250129699707,,,,,,,
4598584000.0,83.21,0.4399999976158142,12041169408.0,1794.8973734015706,95.0,0.004115215037018061,393216.0,690.14564204216,1.0135989270132484e-14,0.0,2.5618813037872314,-0.025618797168135643,0.05984342098236084,-0.025618812069296837,1.4901161193847656e-08,0.0,0.03299664705991745,0.34442272782325745,0.392870421577574,0.03983166441321373,0.33995193243026733,0.07282830774784088,0.44202935695648193,2.282024621963501,0.9985165596008301,,,,,,,
,,,,,,,,,,,,,,,,,,,,,,,,,,0.015284653753042221,0.0863833948969841,0.0626295879483223,0.015284653753042221,0.0863833948969841,0.0626295879483223,
,,,,,,,,,,,,,,,,,,,,,,,,,,0.004849560093134642,0.05809216573834419,0.05330462008714676,0.004849560093134642,0.05809216573834419,0.05330462008714676,
,,,,,,,,,,,,,,,,,,,,,,,,,,0.004094744101166725,0.0512126199901104,0.04965575039386749,0.004094744101166725,0.0512126199901104,0.04965575039386749,
,,,,,,,,,,,,,,,,,,,,,,,,,,0.0032370067201554775,0.04798739776015282,0.046749137341976166,0.0032370067201554775,0.04798739776015282,0.046749137341976166,
,,,,,,,,,,,,,,,,,,,,,,,,,,0.003053875407204032,0.04588054120540619,0.04505070671439171,0.003053875407204032,0.04588054120540619,0.04505070671439171,
,,,,,,,,,,,,,,,,,,,,,,,,,,0.0028998067136853933,0.044401828199625015,0.0440712533891201,0.0028998067136853933,0.044401828199625015,0.0440712533891201,
,,,,,,,,,,,,,,,,,,,,,,,,,,,,,,,,-0.05
4598836000.0,87.13,0.5299999713897705,11990521856.0,17.036272031420456,96.0,0.0013732427032664418,397312.0,930.5738291740417,1.0439565878428425e-14,0.0,2.5126030445098877,-0.025126028805971146,0.06901166588068008,-0.025126030668616295,9.313225746154785e-10,0.0,0.01790442317724228,0.37112852931022644,0.6647677697396115,-0.02599797584116459,0.4159497916698456,-0.008093555457890034,0.6409903168678284,240.4281871318817,0.9971251487731934,,,,,,,
4598836000.0,85.1,0.4399999976158142,12041169408.0,1830.1744137538121,97.0,0.0018770110327750444,401408.0,932.8118672370911,9.02403152203135e-15,0.0,2.5388760566711426,-0.02538876421749592,0.062431976199150085,-0.02538876049220562,-3.725290298461914e-09,0.0,0.045665159821510315,0.3504406213760376,0.5408425759102482,0.00548987090587616,0.381098210811615,0.051155030727386475,0.5171703696250916,2.2380380630493164,0.9971401691436768,,,,,,,
4598836000.0,80.47,0.3400000035762787,12041169408.0,1802.2029616986995,98.0,0.0026339441537857056,405504.0,935.0846412181854,9.362302599846828e-15,0.0,2.5533008575439453,-0.025533011183142662,0.03922398015856743,-0.025533007457852364,-3.725290298461914e-09,0.0,0.03919636458158493,0.27736330032348633,0.6093646829933087,0.07851967215538025,0.3500862419605255,0.11771602928638458,0.44377538561820984,2.2727739810943604,0.997368574142456,,,,,,,
4598836000.0,81.06,0.25999999046325684,12041169408.0,1867.2309540992444,99.0,0.0022629820741713047,409600.0,937.2782638072968,9.48026379621325e-15,0.0,2.5340700149536133,-0.025340702384710312,0.057058610022068024,-0.025340698659420013,-3.725290298461914e-09,0.0,0.012050393037497997,0.33763861656188965,0.6043162407296405,0.10160386562347412,0.4158279597759247,0.1136542558670044,0.5367573499679565,2.193622589111328,0.99717116355896,,,,,,,
4598836000.0,83.54,0.5099999904632568,12041169408.0,1847.6780257786388,100.0,0.005792409181594849,413696.0,939.4951002597809,9.532305500492555e-15,0.0,2.552384853363037,-0.02552386373281479,0.052581675350666046,-0.025523848831653595,-1.4901161193847656e-08,0.0,0.06152530387043953,0.31843796372413635,0.6234791066404367,0.20920316874980927,0.4588630199432373,0.2707284688949585,0.5189557075500488,2.216836452484131,0.9969058036804199,,,,,,,
4598836000.0,80.59,0.7400000095367432,12041169408.0,1875.9464903481928,101.0,0.00403793528676033,417792.0,941.6785314083099,1.0023232244193991e-14,0.0,2.549506187438965,-0.02549506351351738,0.059352852404117584,-0.02549506165087223,-1.862645149230957e-09,0.0,0.017267074435949326,0.3441459834575653,0.5433063471444786,0.2681903839111328,0.4479981064796448,0.28545746207237244,0.5092489719390869,2.1834311485290527,0.9969055652618408,,,,,,,
4598836000.0,83.89,0.6800000071525574,12041169408.0,1806.628799102189,102.0,0.0012628384865820408,421888.0,943.9457376003265,1.0862838406566766e-14,0.0,2.5476722717285156,-0.025476744398474693,0.09006579220294952,-0.025476722046732903,-2.2351741790771484e-08,0.0,-0.08437883108854294,0.4159976541996002,0.681040007182108,0.38819029927253723,0.505731463432312,0.3038114607334137,0.7365847826004028,2.2672061920166016,0.9968717098236084,,,,,,,
4598836000.0,86.32,0.15000000596046448,12041169408.0,1885.0008184125825,103.0,0.0011366233229637146,425984.0,946.1186809539795,1.07032438467769e-14,0.0,2.5337183475494385,-0.025337178260087967,0.08083710819482803,-0.025337181985378265,3.259629011154175e-09,0.0,-0.0437735840678215,0.3997463285923004,0.6890147846906117,0.3337457776069641,0.5085497498512268,0.289972186088562,0.716827392578125,2.172943353652954,0.9972031116485596,,,,,,,
4598836000.0,89.74,0.11999999731779099,12041169408.0,1841.9377229466554,104.0,-0.0001265709288418293,430080.0,948.3424260616302,1.2000817006807551e-14,0.0,2.4761228561401367,-0.02476123347878456,0.05719791352748871,-0.024761227890849113,-5.587935447692871e-09,0.0,-0.014436641708016396,0.3379575312137604,0.6135071217943918,0.22440697252750397,0.508331298828125,0.20997032523155212,0.5436149835586548,2.223745107650757,0.9972832202911377,,,,,,,
4598836000.0,85.04,0.4399999976158142,12041169408.0,1865.6997805559806,105.0,0.004569335374981165,434176.0,950.5378489494324,1.2108369862318114e-14,0.0,2.494030237197876,-0.024940306320786476,0.04514840990304947,-0.024940302595496178,-3.725290298461914e-09,0.0,0.009463263675570488,0.30038192868232727,0.59130097126816,0.25005364418029785,0.4047060012817383,0.2595168948173523,0.46986380219459534,2.195422887802124,0.9972615242004395,,,,,,,
4598836000.0,80.06,0.8500000238418579,12041169408.0,1880.2743365224183,106.0,0.007378220558166504,438272.0,952.7162544727325,1.1763159890598729e-14,0.0,2.4795801639556885,-0.024795781821012497,0.04673638194799423,-0.02479580044746399,1.862645149230957e-08,0.0,0.06677539646625519,0.29838827252388,0.6109873429845252,0.23901395499706268,0.4382822811603546,0.30578935146331787,0.4784095585346222,2.178405523300171,0.9975063800811768,,,,,,,
4598836000.0,78.22,1.1299999952316284,12041169408.0,1788.5809567565097,107.0,0.006240813061594963,442368.0,955.0063381195068,1.235470059590682e-14,0.0,2.4573023319244385,-0.024573013186454773,0.06660108268260956,-0.02457302249968052,9.313225746154785e-09,0.0,0.02764221839606762,0.36396482586860657,0.5272733250907982,0.21256348490715027,0.38623854517936707,0.24020569026470184,0.5293639898300171,2.290083646774292,0.9970154762268066,,,,,,,
4598836000.0,80.47,0.9900000095367432,12041169408.0,1881.4243721875612,108.0,0.005358987953513861,446464.0,957.1834120750427,1.3610640392514028e-14,0.0,2.450428009033203,-0.024504249915480614,0.043950602412223816,-0.024504279717803,2.9802322387695312e-08,0.0,0.03805600106716156,0.2940647602081299,0.6666489647140732,0.24438102543354034,0.4154738783836365,0.2824370265007019,0.5093215107917786,2.1770739555358887,0.9969871044158936,,,,,,,
4598836000.0,85.55,1.1299999952316284,12041169408.0,1861.0194785661029,109.0,0.007538433186709881,450560.0,959.3843562602997,1.4726067587567115e-14,0.0,2.441380500793457,-0.024413807317614555,0.05587124079465866,-0.024413803592324257,-3.725290298461914e-09,0.0,0.05039065331220627,0.330499529838562,0.523450947792548,0.22152577340602875,0.3661608099937439,0.2719164192676544,0.4787590801715851,2.200944185256958,0.9971745014190674,,,,,,,
4598836000.0,84.59,1.0800000429153442,12041169408.0,1779.2132031466838,110.0,0.006656951270997524,454656.0,961.6864974498749,1.347359723791186e-14,0.0,2.4428868293762207,-0.02442886121571064,0.04641368240118027,-0.024428868666291237,7.450580596923828e-09,0.0,0.022134149447083473,0.3039078712463379,0.6041845566144766,0.28147822618484497,0.3663649559020996,0.3036123514175415,0.48305389285087585,2.3021411895751953,0.9971489906311035,,,,,,,
4598836000.0,80.4,0.9300000071525574,12041169408.0,1850.083629585884,111.0,0.007698677480220795,458752.0,963.9004514217377,1.4191772756966259e-14,0.0,2.4355592727661133,-0.02435559593141079,0.04788980633020401,-0.02435559220612049,-3.725290298461914e-09,0.0,0.022800657898187637,0.3086794316768646,0.5408616465173663,0.3337184190750122,0.3735729455947876,0.35651910305023193,0.4555499255657196,2.213953971862793,0.9969589710235596,,,,,,,
4598836000.0,85.95,1.0499999523162842,12041169408.0,1832.1293070829934,112.0,0.007066082209348679,462848.0,966.1361014842987,1.4863110742169283e-14,0.0,2.4285573959350586,-0.024285584688186646,0.056909117847681046,-0.02428557351231575,-1.1175870895385742e-08,0.0,-0.006395295727998018,0.33735015988349915,0.5992659339293235,0.44280147552490234,0.4166041612625122,0.4364061653614044,0.5329086184501648,2.235650062561035,0.9970371723175049,,,,,,,
4598836000.0,88.69,1.2300000190734863,12041169408.0,1865.888430751987,113.0,0.008239262737333775,466944.0,968.3313024044037,1.5411283360577954e-14,0.0,2.459930419921875,-0.024599306285381317,0.0368315726518631,-0.024599304422736168,-2.3283064365386963e-09,0.0,0.009467157535254955,0.271277517080307,0.7058016171011179,0.4991241693496704,0.4451047480106354,0.50859135389328,0.5001424551010132,2.1952009201049805,0.9969406127929688,,,,,,,
4598836000.0,90.12,1.1299999952316284,12041169408.0,1826.6711094028026,114.0,0.0037402603775262833,471040.0,970.5736327171326,1.5867515634759854e-14,0.0,2.4559435844421387,-0.024559438228607178,0.05836968868970871,-0.02455943450331688,-3.725290298461914e-09,0.0,-0.06833378225564957,0.33480924367904663,0.6069382758550187,0.5334581136703491,0.4181494414806366,0.46512430906295776,0.5340317487716675,2.242330312728882,0.9972360134124756,,,,,,,
4598836000.0,88.59,0.9900000095367432,12041169408.0,1794.9247524829025,115.0,0.005943328142166138,475136.0,972.8556225299835,1.3928094788617784e-14,0.0,2.4294912815093994,-0.024294903501868248,0.04795264080166817,-0.024294912815093994,9.313225746154785e-09,0.0,-0.021183134987950325,0.308998167514801,0.6944618434410783,0.5156164169311523,0.44346052408218384,0.49443328380584717,0.5590146780014038,2.281989812850952,0.9974484443664551,,,,,,,
4598836000.0,86.48,1.090000033378601,12041169408.0,1803.5045976595204,116.0,0.007635842077434063,479232.0,975.1267561912537,1.5197912373032807e-14,0.0,2.4020495414733887,-0.024020494893193245,0.06412123143672943,-0.024020494893193245,0.0,0.0,0.003118765540421009,0.3581397235393524,0.47695926832638147,0.48479896783828735,0.380533367395401,0.4879177212715149,0.4952046573162079,2.2711336612701416,0.9970231056213379,,,,,,,
4598836000.0,89.47,1.1799999475479126,12041169408.0,1846.872385306524,117.0,0.008427897468209267,483328.0,977.3445596694946,1.4920356616876518e-14,0.0,2.379626512527466,-0.023796264082193375,0.051734745502471924,-0.023796264082193375,0.0,0.0,0.004917474463582039,0.321668416261673,0.5313969069259541,0.48207888007164,0.3699013888835907,0.4869963526725769,0.4699004292488098,2.217803478240967,0.9972949028015137,,,,,,,
4598836000.0,92.48,1.3899999856948853,12041169408.0,1868.7813118705392,118.0,0.008309920318424702,487424.0,979.5363624095917,1.4143200499638908e-14,0.0,2.415588855743408,-0.02415589988231659,0.05136851966381073,-0.024155888706445694,-1.1175870895385742e-08,0.0,0.003506912849843502,0.32054612040519714,0.5501198372242804,0.4869048595428467,0.3879384994506836,0.49041178822517395,0.47790563106536865,2.191802740097046,0.9970412254333496,,,,,,,
4598836000.0,91.17,1.3300000429153442,12041169408.0,1861.3211151153535,119.0,0.0057201506569981575,491520.0,981.7369499206543,1.3352166594593484e-14,0.0,2.3918561935424805,-0.023918572813272476,0.06844595074653625,-0.02391856163740158,-1.1175870895385742e-08,0.0,-0.007841411978006363,0.3699510991573334,0.5473515819313197,0.46278542280197144,0.3775286376476288,0.45494401454925537,0.5498747825622559,2.200587511062622,0.9972434043884277,,,,,,,
4598836000.0,91.74,1.2799999713897705,12041169408.0,1830.2217923973626,120.0,0.007554634939879179,495616.0,983.9749300479889,1.2731135590193787e-14,0.0,2.413665771484375,-0.02413664571940899,0.04780534282326698,-0.024136656895279884,1.1175870895385742e-08,0.0,0.0028563346713781357,0.3092343211174011,0.595959163289436,0.42426198720932007,0.3753771185874939,0.42711830139160156,0.486491322517395,2.2379801273345947,0.9972147941589355,,,,,,,
4598836000.0,89.17,1.340000033378601,12041169408.0,1865.2547497043581,121.0,0.009134886786341667,499712.0,986.1708767414093,1.411544492402328e-14,0.0,2.4089088439941406,-0.024089088663458824,0.036945026367902756,-0.024089088663458824,0.0,0.0,0.020858436822891235,0.2710588872432709,0.589620044320263,0.37580281496047974,0.3458939492702484,0.39666128158569336,0.4231269061565399,2.19594669342041,0.9969813823699951,,,,,,,
4598836000.0,85.42,1.0700000524520874,12041169408.0,1849.495877627464,122.0,0.004839007742702961,503808.0,988.385534286499,1.3105835861004778e-14,0.0,2.4233031272888184,-0.024233026430010796,0.05692492797970772,-0.024233030155301094,3.725290298461914e-09,0.0,-0.016811970621347427,0.33703848719596863,0.5365224796874477,0.4292239546775818,0.37399300932884216,0.41241198778152466,0.4950683116912842,2.2146575450897217,0.9972853660583496,,,,,,,
4598836000.0,82.69,0.8700000047683716,12041169408.0,1782.9703021099092,123.0,0.007075318600982428,507904.0,990.6828243732452,1.3352166594593484e-14,0.0,2.426607131958008,-0.0242660753428936,0.04719143360853195,-0.024266071617603302,-3.725290298461914e-09,0.0,-0.023966966196894646,0.30631905794143677,0.6462544906501864,0.43536365032196045,0.3888494670391083,0.41139668226242065,0.51502525806427,2.297290086746216,0.99704909324646,,,,,,,
4598836000.0,80.86,1.1799999475479126,12041169408.0,1836.1391688660246,124.0,0.008528989739716053,512000.0,992.9135921001434,1.4068607390171906e-14,0.0,2.425140380859375,-0.024251410737633705,0.05181993916630745,-0.024251403287053108,-7.450580596923828e-09,0.0,0.018806597217917442,0.32142093777656555,0.5595496656228781,0.3993615508079529,0.3675484359264374,0.41816818714141846,0.4843125641345978,2.2307677268981934,0.9974439144134521,,,,,,,
4598836000.0,83.64,1.3600000143051147,12041169408.0,1833.3037402989162,125.0,0.007360727060586214,516096.0,995.1478099822998,1.4271570036861192e-14,0.0,2.416694164276123,-0.024166934192180634,0.04594365879893303,-0.02416694164276123,7.450580596923828e-09,0.0,0.0103664081543684,0.3029888868331909,0.6005102150983797,0.3547728657722473,0.3731728494167328,0.36513927578926086,0.4793733060359955,2.234217882156372,0.9976861476898193,,,,,,,
4598836000.0,85.41,1.2100000381469727,12041169408.0,1849.785225594762,126.0,0.007903371006250381,520192.0,997.3621211051941,1.450575770611806e-14,0.0,2.406114339828491,-0.02406114898622036,0.03367770463228226,-0.024061143398284912,-5.587935447692871e-09,0.0,0.0006951778195798397,0.2595599591732025,0.6185915868334066,0.40677881240844727,0.3518564701080322,0.40747398138046265,0.4202836751937866,2.214311122894287,0.9971518516540527,,,,,,,
4598836000.0,87.77,1.2200000286102295,12041169408.0,1818.7059442389827,127.0,0.00897076167166233,524288.0,999.6142718791962,1.3274104038174528e-14,0.0,2.430616855621338,-0.02430616319179535,0.04969938471913338,-0.024306168779730797,5.587935447692871e-09,0.0,-0.00033647799864411354,0.31531399488449097,0.6034007760952311,0.4034460186958313,0.4106249511241913,0.4031095504760742,0.5006881952285767,2.252150774002075,0.997352123260498,,,,,,,
,,,,,,,,,,,,,,,,,,,,,,,,,,0.009510774165391922,0.07185585051774979,0.057907894253730774,0.009510774165391922,0.07185585051774979,0.057907894253730774,
,,,,,,,,,,,,,,,,,,,,,,,,,,0.004964928142726421,0.051671724766492844,0.04847961664199829,0.004964928142726421,0.051671724766492844,0.04847961664199829,
,,,,,,,,,,,,,,,,,,,,,,,,,,0.004655835218727589,0.04676368832588196,0.045105405151844025,0.004655835218727589,0.04676368832588196,0.045105405151844025,
,,,,,,,,,,,,,,,,,,,,,,,,,,0.003636946901679039,0.04407448321580887,0.04297270625829697,0.003636946901679039,0.04407448321580887,0.04297270625829697,
,,,,,,,,,,,,,,,,,,,,,,,,,,0.0033891897182911634,0.04243164509534836,0.04159180819988251,0.0033891897182911634,0.04243164509534836,0.04159180819988251,
,,,,,,,,,,,,,,,,,,,,,,,,,,0.0030948594212532043,0.041049785912036896,0.040517158806324005,0.0030948594212532043,0.041049785912036896,0.040517158806324005,
,,,,,,,,,,,,,,,,,,,,,,,,,,,,,,,,0.69
4599092000.0,87.12,1.4299999475479126,11990521856.0,17.00390751186372,128.0,0.008321685716509819,528384.0,1240.500079870224,1.1548054179577605e-14,0.0,2.468278408050537,-0.02468278631567955,0.03495468944311142,-0.0246827844530344,-1.862645149230957e-09,0.0,0.042254649102687836,0.2610374689102173,0.8118043650985967,0.2946232557296753,0.515643835067749,0.33687788248062134,0.6017249822616577,240.88580799102783,0.9970905780792236,,,,,,,
4599092000.0,82.99,1.399999976158142,12041169408.0,1858.5435489386477,129.0,0.009656657464802265,532480.0,1242.7039561271667,1.2113574032746044e-14,0.0,2.4546356201171875,-0.024546358734369278,0.033871181309223175,-0.02454635500907898,-3.725290298461914e-09,0.0,0.039573200047016144,0.25727900862693787,0.7067426492531845,0.31115496158599854,0.3969760537147522,0.3507281541824341,0.47509440779685974,2.203876256942749,0.9969897270202637,,,,,,,
4599092000.0,85.45,1.4199999570846558,12041169408.0,1848.0781276136709,130.0,0.005826588254421949,536576.0,1244.9203126430511,1.2016429518091343e-14,0.0,2.4406909942626953,-0.02440691366791725,0.07634005695581436,-0.024406909942626953,-3.725290298461914e-09,0.0,-0.016086535528302193,0.39045941829681396,0.5578190711937041,0.3085690140724182,0.35956719517707825,0.2924824655056,0.5871862769126892,2.2163565158843994,0.9973611831665039,,,,,,,
4599092000.0,84.82,1.2300000190734863,12041169408.0,1805.026942070907,131.0,0.009679990820586681,540672.0,1247.1895308494568,1.1884590533917105e-14,0.0,2.4412527084350586,-0.024412544444203377,0.03752390295267105,-0.024412525817751884,-1.862645149230957e-08,0.0,0.05655515566468239,0.2680799663066864,0.7306744449381091,0.35013872385025024,0.4394308924674988,0.40669387578964233,0.5165656805038452,2.2692182064056396,0.9974105358123779,,,,,,,
4599092000.0,90.64,1.4900000095367432,12041169408.0,1873.4347959031006,132.0,0.009692441672086716,544768.0,1249.3758893013,1.1636525076852422e-14,0.0,2.467688798904419,-0.02467690221965313,0.0338139608502388,-0.024676887318491936,-1.4901161193847656e-08,0.0,0.04207169637084007,0.25665926933288574,0.7660122288782839,0.41357487440109253,0.44763752818107605,0.4556465744972229,0.530591607093811,2.1863584518432617,0.9968509674072266,,,,,,,
4599092000.0,95.47,1.559999942779541,12041169408.0,1832.5948336646181,133.0,0.007312196306884289,548864.0,1251.6109714508057,1.2347761702002913e-14,0.0,2.4148778915405273,-0.024148760363459587,0.03795546293258667,-0.02414877898991108,1.862645149230957e-08,0.0,0.04001539200544357,0.27263134717941284,0.7440530381366426,0.31639188528060913,0.4345867335796356,0.3564072847366333,0.5388908386230469,2.2350821495056152,0.9971380233764648,,,,,,,
4599092000.0,96.27,1.399999976158142,12041169408.0,1859.6544657755485,134.0,0.00985511764883995,552960.0,1253.8135311603546,1.269123695024632e-14,0.0,2.4711718559265137,-0.024711715057492256,0.03154546394944191,-0.024711718782782555,3.725290298461914e-09,0.0,0.01349617913365364,0.25084686279296875,0.8011930902456527,0.5240274667739868,0.48689475655555725,0.537523627281189,0.5625911951065063,2.20255970954895,0.9968385696411133,,,,,,,
4599092000.0,91.17,1.5800000429153442,12041169408.0,1833.9900929620148,135.0,0.01013345830142498,557056.0,1256.046912908554,1.272940086671781e-14,0.0,2.4563779830932617,-0.024563757702708244,0.049576327204704285,-0.024563780054450035,2.2351741790771484e-08,0.0,0.005323484539985657,0.31487858295440674,0.751209405386237,0.5724915266036987,0.5452255010604858,0.5778149962425232,0.6312860250473022,2.233381748199463,0.997114896774292,,,,,,,
4599092000.0,88.76,1.5099999904632568,12041169408.0,1845.0283768169452,136.0,0.006813128478825092,561152.0,1258.266932964325,1.182214048878194e-14,0.0,2.460969924926758,-0.024609705433249474,0.054534610360860825,-0.024609697982668877,-7.450580596923828e-09,0.0,-0.059782370924949646,0.3248400390148163,0.7773575099886673,0.5167823433876038,0.6178034543991089,0.4569999575614929,0.688439130783081,2.220020055770874,0.9969451427459717,,,,,,,
4599092000.0,86.53,1.3799999952316284,12041169408.0,1866.9535708584367,137.0,0.00815979391336441,565248.0,1260.460881471634,1.2696441120674251e-14,0.0,2.426091194152832,-0.02426092140376568,0.05220892280340195,-0.024260912090539932,-9.313225746154785e-09,0.0,-0.0356324203312397,0.32120609283447266,0.7717938350477184,0.7332643270492554,0.5957809686660767,0.6976318955421448,0.6723883152008057,2.19394850730896,0.9971911907196045,,,,,,,
4599092000.0,90.16,1.2699999809265137,12041169408.0,1829.219954620519,138.0,0.00763929495587945,569344.0,1262.7000873088837,1.4094628242311558e-14,0.0,2.4013381004333496,-0.02401338703930378,0.0512908473610878,-0.024013379588723183,-7.450580596923828e-09,0.0,-0.05326482653617859,0.31586217880249023,0.7788126318546534,0.6879451274871826,0.6314252018928528,0.6346802711486816,0.6716105341911316,2.239205837249756,0.9970672130584717,,,,,,,
4599092000.0,94.57,1.3300000429153442,12041169408.0,1858.567877514468,139.0,0.005500106140971184,573440.0,1264.9039347171783,1.4585554986012994e-14,0.0,2.3741190433502197,-0.02374117821455002,0.0804072767496109,-0.023741189390420914,1.1175870895385742e-08,0.0,-0.05620301142334938,0.39710739254951477,0.7276027698680145,0.5563132762908936,0.5929583311080933,0.5001102685928345,0.760863184928894,2.2038474082946777,0.9971420764923096,,,,,,,
4599092000.0,99.59,1.1799999475479126,12041169408.0,1836.8588729940343,140.0,0.008056093007326126,577536.0,1267.1338284015656,1.5780779460961014e-14,0.0,2.3680810928344727,-0.023680806159973145,0.07684427499771118,-0.023680809885263443,3.725290298461914e-09,0.0,-0.010360201820731163,0.39194226264953613,0.7644682173342943,0.5832952260971069,0.6480886340141296,0.5729350447654724,0.8076018691062927,2.229893684387207,0.9968688488006592,,,,,,,
4599092000.0,98.03,1.159999966621399,12041169408.0,1859.5771696305571,141.0,0.008205881342291832,581632.0,1269.3364796638489,1.6691509285848838e-14,0.0,2.337592840194702,-0.023375943303108215,0.028074301779270172,-0.02337592840194702,-1.4901161193847656e-08,0.0,0.009852769784629345,0.23678094148635864,0.7716438165102745,0.5056958198547363,0.4812278151512146,0.515548586845398,0.4954962730407715,2.202651262283325,0.9970061779022217,,,,,,,
4599092000.0,106.01,1.7400000095367432,12041169408.0,1864.1472474864202,142.0,0.011175349354743958,585728.0,1271.5337309837341,1.7931836571172255e-14,0.0,2.301684856414795,-0.02301684208214283,0.0482725128531456,-0.023016847670078278,5.587935447692871e-09,0.0,0.041552066802978516,0.30796366930007935,0.7818842005974311,0.49823418259620667,0.5917561054229736,0.5397862195968628,0.6594105362892151,2.197251319885254,0.9968276023864746,,,,,,,
4599092000.0,102.36,1.7699999809265137,12041169408.0,1836.2724266631778,143.0,0.009436646476387978,589824.0,1273.7643368244171,1.9503496040407242e-14,0.0,2.260920286178589,-0.022609204053878784,0.05670413747429848,-0.022609202191233635,-1.862645149230957e-09,0.0,0.05087972804903984,0.3329363167285919,0.6392430927188901,0.40946078300476074,0.5214736461639404,0.4603404998779297,0.5543114542961121,2.2306058406829834,0.997124433517456,,,,,,,
4599092000.0,109.05,1.8200000524520874,12041169408.0,1821.2714017186022,144.0,0.006343633867800236,593920.0,1276.0133152008057,2.1999763122337868e-14,0.0,2.258310317993164,-0.02258310094475746,0.04409036785364151,-0.02258310280740261,1.862645149230957e-09,0.0,-0.009882759302854538,0.2968241572380066,0.808510886752521,0.4407657980918884,0.5515583157539368,0.4308830499649048,0.6783084273338318,2.24897837638855,0.9969098567962646,,,,,,,
4599092000.0,109.33,1.5,12041169408.0,1839.193444799154,145.0,0.007837073877453804,598016.0,1278.2403783798218,2.1354445989274495e-14,0.0,2.249964714050293,-0.022499646991491318,0.056524455547332764,-0.022499646991491318,0.0,0.0,0.029426248744130135,0.33497822284698486,0.6820047919124299,0.47219404578208923,0.5099416375160217,0.5016202926635742,0.5940271615982056,2.2270631790161133,0.9980504512786865,,,,,,,
4599092000.0,100.06,1.690000057220459,12041169408.0,1809.5307153851938,146.0,0.011361607350409031,602112.0,1280.503948688507,2.1028317975790856e-14,0.0,2.274700164794922,-0.02274697832763195,0.050792984664440155,-0.02274700067937374,2.2351741790771484e-08,0.0,0.07786735892295837,0.30910512804985046,0.6960546076551483,0.4648265838623047,0.5028809905052185,0.5426939725875854,0.5606713891029358,2.2635703086853027,0.9971332550048828,,,,,,,
4599092000.0,99.16,1.940000057220459,12041169408.0,1806.5093068009285,147.0,0.007859870791435242,606208.0,1282.77130484581,1.846613140177311e-14,0.0,2.324276924133301,-0.023242762312293053,0.03383822739124298,-0.0232427679002285,5.587935447692871e-09,0.0,0.00937389675527811,0.2600097954273224,0.7348185719858517,0.44130492210388184,0.45343899726867676,0.4506787955760956,0.5049148201942444,2.2673561573028564,0.9971528053283691,,,,,,,
4599092000.0,103.57,1.5700000524520874,12041169408.0,1809.7836706337189,148.0,0.00895823072642088,610304.0,1285.0345587730408,1.7449583444850703e-14,0.0,2.3538436889648438,-0.02353845350444317,0.03709462285041809,-0.023538436740636826,-1.6763806343078613e-08,0.0,-0.009951464831829071,0.2722283899784088,0.7492687986984792,0.5174801349639893,0.5089714527130127,0.5075286626815796,0.5436623692512512,2.263253927230835,0.9970662593841553,,,,,,,
4599092000.0,95.23,1.350000023841858,12041169408.0,1853.408629333468,149.0,0.007747833617031574,614400.0,1287.2445409297943,1.7232743010353602e-14,0.0,2.351316213607788,-0.023513156920671463,0.04568648338317871,-0.02351316250860691,5.587935447692871e-09,0.0,-0.01693633943796158,0.3018416166305542,0.8175505227000471,0.4660125970840454,0.6217359900474548,0.4490762948989868,0.7066556215286255,2.20998215675354,0.9973762035369873,,,,,,,
4599092000.0,99.88,1.659999966621399,12041169408.0,1848.037572890739,150.0,0.012106722220778465,618496.0,1289.4609460830688,1.5933435126846973e-14,0.0,2.373065948486328,-0.023730646818876266,0.036125097423791885,-0.02373065985739231,1.3969838619232178e-08,0.0,0.06536116451025009,0.2607579529285431,0.7642095525159094,0.6211024522781372,0.5063884258270264,0.6864635944366455,0.5370002388954163,2.216405153274536,0.9971926212310791,,,,,,,
4599092000.0,105.41,2.0,12041169408.0,1854.7736963448913,151.0,0.011428950354456902,622592.0,1291.6693017482758,1.5709655798445965e-14,0.0,2.402761936187744,-0.02402760460972786,0.053073953837156296,-0.024027619510889053,1.4901161193847656e-08,0.0,0.0249700415879488,0.3248848617076874,0.7492886189021217,0.5608242154121399,0.5251908898353577,0.5857942700386047,0.6488471627235413,2.208355665206909,0.9972610473632812,,,,,,,
4599092000.0,117.86,2.319999933242798,12041169408.0,1839.3596393028968,152.0,0.011714145541191101,626688.0,1293.896163702011,1.4906478829068703e-14,0.0,2.40873384475708,-0.024087348952889442,0.04338715970516205,-0.024087337777018547,-1.1175870895385742e-08,0.0,0.04155738651752472,0.29166433215141296,0.7003427529660476,0.6292691826820374,0.522723376750946,0.6708265542984009,0.5328081846237183,2.2268619537353516,0.9971649646759033,,,,,,,
4599092000.0,106.99,2.0399999618530273,12041169408.0,1788.0954592125347,153.0,0.009816975332796574,630784.0,1296.1868691444397,1.528291382335567e-14,0.0,2.403416872024536,-0.0240341667085886,0.08022578805685043,-0.02403416857123375,1.862645149230957e-09,0.0,-0.026143919676542282,0.39975878596305847,0.6199351846803629,0.69989013671875,0.5254217386245728,0.6737462282180786,0.6484391093254089,2.290705442428589,0.9982199668884277,,,,,,,
4599092000.0,98.54,2.0299999713897705,12041169408.0,1808.5521570727929,154.0,0.012008922174572945,634880.0,1298.4516642093658,1.423514084386568e-14,0.0,2.415012836456299,-0.02415013499557972,0.05415002629160881,-0.024150127544999123,-7.450580596923828e-09,0.0,0.0050881546922028065,0.32909056544303894,0.7300240257238139,0.7596827745437622,0.5458922386169434,0.7647709250450134,0.6333633065223694,2.2647950649261475,0.9970641136169434,,,,,,,
4599092000.0,94.22,1.9500000476837158,12041169408.0,1867.3397384226228,155.0,0.011747469194233418,638976.0,1300.6451590061188,1.3577680646470469e-14,0.0,2.403195858001709,-0.02403196133673191,0.04947073385119438,-0.024031957611441612,-3.725290298461914e-09,0.0,-0.03446526825428009,0.31269392371177673,0.7225386129507152,0.7697995901107788,0.5199239253997803,0.7353343367576599,0.5936331748962402,2.1934947967529297,0.9973981380462646,,,,,,,
4599092000.0,97.01,2.0,12041169408.0,1852.1757553522411,156.0,0.009436707943677902,643072.0,1302.8566122055054,1.484229406045756e-14,0.0,2.4276838302612305,-0.024276841431856155,0.05736056715250015,-0.024276837706565857,-3.725290298461914e-09,0.0,-0.011200512759387493,0.33856117725372314,0.7113670709861835,0.7647038102149963,0.5152082443237305,0.7535032629966736,0.6301794052124023,2.2114531993865967,0.9968869686126709,,,,,,,
4599092000.0,100.52,2.049999952316284,12041169408.0,1842.5467647935752,157.0,0.011499738320708275,647168.0,1305.0796222686768,1.4200446374346143e-14,0.0,2.4348254203796387,-0.02434825897216797,0.06035124510526657,-0.02434825338423252,-4.6566128730773926e-09,0.0,0.03727748990058899,0.34545913338661194,0.657794333961967,0.7306207418441772,0.5332486629486084,0.7678982019424438,0.5905450582504272,2.2230100631713867,0.9974021911621094,,,,,,,
4599092000.0,110.9,2.0,12041169408.0,1785.427329280722,158.0,0.012321654707193375,651264.0,1307.373750925064,1.533669025111095e-14,0.0,2.402730941772461,-0.024027300998568535,0.052646610885858536,-0.024027308449149132,7.450580596923828e-09,0.0,0.03826020285487175,0.32226499915122986,0.7636419195103087,0.7153446078300476,0.5924171209335327,0.7536048293113708,0.6628692746162415,2.294128656387329,0.9970953464508057,,,,,,,
4599092000.0,111.29,2.259999990463257,12041169408.0,1849.8882019412777,159.0,0.011233278550207615,655360.0,1309.587938785553,1.7286519438108883e-14,0.0,2.3657641410827637,-0.023657632991671562,0.06582992523908615,-0.02365764044225216,7.450580596923828e-09,0.0,0.014491494745016098,0.36260437965393066,0.6623194236550347,0.8021953105926514,0.5024726390838623,0.8166868090629578,0.6239933967590332,2.2141878604888916,0.9973244667053223,,,,,,,
,,,,,,,,,,,,,,,,,,,,,,,,,,0.027519280090928078,0.07299598306417465,0.0590016134083271,0.027519280090928078,0.07299598306417465,0.0590016134083271,
,,,,,,,,,,,,,,,,,,,,,,,,,,0.006848507560789585,0.04984305426478386,0.046245161443948746,0.006848507560789585,0.04984305426478386,0.046245161443948746,
,,,,,,,,,,,,,,,,,,,,,,,,,,0.00690049771219492,0.04601820558309555,0.04427569359540939,0.00690049771219492,0.04601820558309555,0.04427569359540939,
,,,,,,,,,,,,,,,,,,,,,,,,,,0.0073188114911317825,0.04241183027625084,0.0412113182246685,0.0073188114911317825,0.04241183027625084,0.0412113182246685,
,,,,,,,,,,,,,,,,,,,,,,,,,,0.0060735722072422504,0.040387112647295,0.0395880751311779,0.0060735722072422504,0.040387112647295,0.0395880751311779,
,,,,,,,,,,,,,,,,,,,,,,,,,,0.004610974807292223,0.038797248154878616,0.03827979415655136,0.004610974807292223,0.038797248154878616,0.03827979415655136,
,,,,,,,,,,,,,,,,,,,,,,,,,,,,,,,,2.36
4599092000.0,117.43,2.2799999713897705,11990521856.0,16.992707879963305,160.0,0.007815143093466759,659456.0,1550.6325109004974,1.5222198501696482e-14,0.0,2.36545467376709,-0.023654546588659286,0.0476398691534996,-0.023654546588659286,0.0,0.0,0.032168325036764145,0.30703088641166687,0.7857900947642635,0.4031924605369568,0.5238636136054993,0.43536078929901123,0.6633799076080322,241.04457211494446,0.9971401691436768,,,,,,,
4599092000.0,115.06,2.0799999237060547,12041169408.0,1813.1510582687654,161.0,0.009056934155523777,663552.0,1552.8915615081787,1.561945017769517e-14,0.0,2.3686110973358154,-0.023686105385422707,0.05676143616437912,-0.023686110973358154,6.05359673500061e-09,0.0,0.02889389544725418,0.3357313275337219,0.6863082908275939,0.3983922600746155,0.5016981363296509,0.42728617787361145,0.5994325876235962,2.2590506076812744,0.9971568584442139,,,,,,,
4599092000.0,115.99,1.8700000047683716,12041169408.0,1797.4238873594627,162.0,0.010302206501364708,667648.0,1555.170378446579,1.604445742930949e-14,0.0,2.3567678928375244,-0.023567691445350647,0.04312164708971977,-0.023567678406834602,-1.3969838619232178e-08,0.0,0.08080136775970459,0.2823719084262848,0.6776100732300888,0.4642728269100189,0.3825894892215729,0.5450742244720459,0.49731409549713135,2.2788169384002686,0.9969899654388428,,,,,,,
4599092000.0,111.23,2.0999999046325684,12041169408.0,1882.4388467333574,163.0,0.013882147148251534,671744.0,1557.346279144287,1.621272560647924e-14,0.0,2.3537039756774902,-0.023537058383226395,0.04558185487985611,-0.023537039756774902,-1.862645149230957e-08,0.0,0.06781886518001556,0.2942540645599365,0.795998156439393,0.5113436579704285,0.6328376531600952,0.5791624784469604,0.6514864563941956,2.17590069770813,0.9971320629119873,,,,,,,
4599092000.0,111.8,2.450000047683716,12041169408.0,1839.913575238473,164.0,0.013056665658950806,675840.0,1559.572470664978,1.6106907474444654e-14,0.0,2.34818959236145,-0.02348189428448677,0.04005427658557892,-0.02348189614713192,1.862645149230957e-09,0.0,0.06040516495704651,0.2765473425388336,0.8100040007259044,0.6878378987312317,0.5272960066795349,0.7482430338859558,0.63444983959198,2.226191520690918,0.9974288940429688,,,,,,,
4599092000.0,112.49,2.549999952316284,12041169408.0,1799.5449969806589,165.0,0.010730719193816185,679936.0,1561.8486015796661,1.7399276464047375e-14,0.0,2.3527846336364746,-0.0235278382897377,0.060342397540807724,-0.0235278457403183,7.450580596923828e-09,0.0,0.02205854281783104,0.3467384874820709,0.7716054912584407,0.7394569516181946,0.6852982044219971,0.7615154981613159,0.7255364656448364,2.2761309146881104,0.9970645904541016,,,,,,,
4599092000.0,117.16,2.490000009536743,12041169408.0,1837.1733561637902,166.0,0.011977119371294975,684032.0,1564.0781135559082,1.7404480634475306e-14,0.0,2.309222936630249,-0.02309223636984825,0.06603772938251495,-0.023092228919267654,-7.450580596923828e-09,0.0,0.004825869109481573,0.36343416571617126,0.7718831931137444,0.9940102696418762,0.6703051924705505,0.998836100101471,0.7609341740608215,2.2295119762420654,0.9970307350158691,,,,,,,
4599092000.0,109.96,2.259999990463257,12041169408.0,1827.9447407458795,167.0,0.013226447626948357,688128.0,1566.3188815116882,1.6563139748626554e-14,0.0,2.3342347145080566,-0.023342346772551537,0.03722947835922241,-0.023342346772551537,0.0,0.0,-0.007086567580699921,0.27281293272972107,0.8702769447109137,0.8820425271987915,0.7149364352226257,0.8749560117721558,0.7574542164802551,2.2407679557800293,0.9972872734069824,,,,,,,
4599092000.0,102.2,2.130000114440918,12041169408.0,1834.098562944009,168.0,0.009377919137477875,692224.0,1568.5521311759949,1.6743550990128142e-14,0.0,2.3254599571228027,-0.023254595696926117,0.058851078152656555,-0.023254599422216415,3.725290298461914e-09,0.0,-0.034208375960588455,0.34140944480895996,0.8431071871148622,0.990295946598053,0.8133492469787598,0.956087589263916,0.8619340658187866,2.2332496643066406,0.9971024990081787,,,,,,,
4599092000.0,99.92,2.2899999618530273,12041169408.0,1880.8727561279914,169.0,0.013802768662571907,696320.0,1570.7298436164856,1.6379259060173013e-14,0.0,2.327624797821045,-0.023276258260011673,0.06129017472267151,-0.023276247084140778,-1.210719347000122e-08,0.0,-0.05686058849096298,0.345508873462677,0.8030102048132393,1.170437216758728,0.6982018947601318,1.1135766506195068,0.7784618735313416,2.1777124404907227,0.9969029426574707,,,,,,,
4599092000.0,104.22,2.4100000858306885,12041169408.0,1777.1119666645186,170.0,0.015177980065345764,700416.0,1573.0347068309784,1.703324981061627e-14,0.0,2.288007974624634,-0.02288007363677025,0.07162131369113922,-0.022880079224705696,5.820766091346741e-09,0.0,-0.01336069218814373,0.37828436493873596,0.8281552476530821,1.2658839225769043,0.7971498966217041,1.2525231838226318,0.9125364422798157,2.304863214492798,0.997077465057373,,,,,,,
4599092000.0,106.48,2.7300000190734863,12041169408.0,1846.3692166853293,171.0,0.01531188003718853,704512.0,1575.2531147003174,1.7139067942650854e-14,0.0,2.3167834281921387,-0.023167837411165237,0.051571592688560486,-0.02316783368587494,-3.725290298461914e-09,0.0,0.03976298123598099,0.3187269866466522,0.8383225113869867,1.042007327079773,0.7457388639450073,1.0817703008651733,0.7926729917526245,2.2184078693389893,0.9970235824584961,,,,,,,
4599092000.0,112.51,2.9700000286102295,12041169408.0,1863.4288440806886,172.0,0.014766447246074677,708608.0,1577.4512131214142,1.5839760059144226e-14,0.0,2.3091232776641846,-0.023091241717338562,0.05305973440408707,-0.023091232404112816,-9.313225746154785e-09,0.0,-0.005146258044987917,0.3257589638233185,0.831906453565634,1.0364727973937988,0.7329740524291992,1.0313266515731812,0.7945494055747986,2.1980984210968018,0.996967077255249,,,,,,,
4599092000.0,112.53,2.9600000381469727,12041169408.0,1795.9327337576353,173.0,0.014493298716843128,712704.0,1579.7319221496582,1.7546727959505404e-14,0.0,2.320979118347168,-0.023209787905216217,0.04923901706933975,-0.023209789767861366,1.862645149230957e-09,0.0,-0.012418697588145733,0.31360456347465515,0.8517676400189508,1.090087890625,0.7617496848106384,1.077669382095337,0.8145372271537781,2.2807090282440186,0.9969439506530762,,,,,,,
4599092000.0,118.57,2.890000104904175,12041169408.0,1802.2129816550525,174.0,0.010077477432787418,716800.0,1582.0046834945679,1.6974269212433057e-14,0.0,2.3254005908966064,-0.023254016414284706,0.05477248504757881,-0.02325400523841381,-1.1175870895385742e-08,0.0,0.004624379798769951,0.33098387718200684,0.8506541507831046,1.0126335620880127,0.7318792939186096,1.0172579288482666,0.8564662337303162,2.272761344909668,0.9972589015960693,,,,,,,
4599092000.0,119.97,2.880000114440918,12041169408.0,1784.4917124374617,175.0,0.014496618881821632,720896.0,1584.3000149726868,1.7373255611907723e-14,0.0,2.2994704246520996,-0.02299470826983452,0.03835589438676834,-0.02299470454454422,-3.259629011154175e-09,0.0,-0.009211026132106781,0.27684950828552246,0.8919425342102465,0.9204926490783691,0.8051712512969971,0.9112815856933594,0.8422021269798279,2.2953314781188965,0.9970903396606445,,,,,,,
4599092000.0,124.61,2.75,12041169408.0,1866.5624929989792,176.0,0.01325294841080904,724992.0,1586.4944231510162,1.730907084329658e-14,0.0,2.2419888973236084,-0.022419888526201248,0.062628835439682,-0.022419888526201248,0.0,0.0,0.04131581634283066,0.3515406847000122,0.7523697692723116,0.8850709199905396,0.653488039970398,0.9263867735862732,0.7064375281333923,2.1944081783294678,0.9968643188476562,,,,,,,
4599092000.0,134.83,3.069999933242798,12041169408.0,1888.2062578797218,177.0,0.013933767564594746,729088.0,1588.6636776924133,1.8140003388289472e-14,0.0,2.261850118637085,-0.022618494927883148,0.0608205683529377,-0.022618500515818596,6.51925802230835e-09,0.0,0.03163686394691467,0.34737545251846313,0.8522552606296934,1.072697401046753,0.7824404835700989,1.1043341159820557,0.9037389755249023,2.1692545413970947,0.9970791339874268,,,,,,,
4599092000.0,131.88,3.1700000762939453,12041169408.0,1879.5251508746148,178.0,0.013105220161378384,733184.0,1590.8429515361786,1.9541659956878732e-14,0.0,2.2261815071105957,-0.02226180024445057,0.06496944278478622,-0.022261815145611763,1.4901161193847656e-08,0.0,0.03676275163888931,0.3586346209049225,0.7623674418792643,0.9558919668197632,0.6896621584892273,0.9926547408103943,0.7356974482536316,2.179273843765259,0.9968173503875732,,,,,,,
4599092000.0,145.62,3.5799999237060547,12041169408.0,1800.7210468998119,179.0,0.015439286828041077,737280.0,1593.117595911026,1.9201654155587278e-14,0.0,2.2441442012786865,-0.02244144305586815,0.05170004814863205,-0.022441441193223,-1.862645149230957e-09,0.0,0.038462549448013306,0.3192892372608185,0.8570474516436545,1.1472598314285278,0.7702471613883972,1.1857223510742188,0.8444780707359314,2.274644374847412,0.9971938133239746,,,,,,,
4599092000.0,145.66,3.4200000762939453,12041169408.0,1821.8668512726017,180.0,0.008692984469234943,741376.0,1595.3658392429352,1.7546727959505404e-14,0.0,2.2580347061157227,-0.022580347955226898,0.05015411227941513,-0.02258034609258175,-1.862645149230957e-09,0.0,0.005837677977979183,0.3166995942592621,0.8122969237878286,0.9491738080978394,0.6790106892585754,0.9550114870071411,0.7309906482696533,2.2482433319091797,0.997291088104248,,,,,,,
4599092000.0,140.3,3.2100000381469727,12041169408.0,1843.2539005019419,181.0,0.013668105006217957,745472.0,1597.5879964828491,1.8230209009040266e-14,0.0,2.2623608112335205,-0.02262360043823719,0.07086940854787827,-0.022623607888817787,7.450580596923828e-09,0.0,0.00980561226606369,0.3764004111289978,0.8010296566052343,1.220613956451416,0.7675008177757263,1.230419635772705,0.8438317775726318,2.2221572399139404,0.9970638751983643,,,,,,,
4599092000.0,144.72,3.240000009536743,12041169408.0,1826.9941595294954,182.0,0.014360541477799416,749568.0,1599.829930305481,1.916175551563981e-14,0.0,2.2783868312835693,-0.022783858701586723,0.06275458633899689,-0.02278386801481247,9.313225746154785e-09,0.0,0.012686246074736118,0.35408875346183777,0.8526272541813164,1.333242654800415,0.8623239994049072,1.3459289073944092,0.9223666191101074,2.241933822631836,0.9969151020050049,,,,,,,
4599092000.0,129.14,3.130000114440918,12041169408.0,1816.2488893098878,183.0,0.014086015522480011,753664.0,1602.0851278305054,1.7895407378176742e-14,0.0,2.278453826904297,-0.02278454601764679,0.08935648202896118,-0.022784538567066193,-7.450580596923828e-09,0.0,-0.13261696696281433,0.4014537036418915,0.826138672681858,1.4075978994369507,0.9455353617668152,1.274980902671814,0.9627953767776489,2.255197525024414,0.9970223903656006,,,,,,,
4599092000.0,127.36,3.119999885559082,12041169408.0,1829.2435215484504,184.0,0.013675231486558914,757760.0,1604.324304819107,1.8115717259625796e-14,0.0,2.295578718185425,-0.02295578643679619,0.0665353313088417,-0.02295578643679619,0.0,0.0,-0.013074974529445171,0.3645986318588257,0.8506854109375751,1.4695277214050293,0.8600347638130188,1.4564528465270996,0.9435478448867798,2.2391769886016846,0.9969489574432373,,,,,,,
4599092000.0,127.54,3.259999990463257,12041169408.0,1840.6204656698098,185.0,0.01547185331583023,761856.0,1606.5496413707733,1.764040302720815e-14,0.0,2.2946763038635254,-0.02294675074517727,0.07805915176868439,-0.022946761921048164,1.1175870895385742e-08,0.0,0.03824035823345184,0.3933112621307373,0.8005806125721439,1.3365528583526611,0.7997259497642517,1.374793291091919,0.8807500600814819,2.2253365516662598,0.9970741271972656,,,,,,,
4599092000.0,129.0,3.390000104904175,12041169408.0,1864.40518282542,186.0,0.016290239989757538,765952.0,1608.7465887069702,1.7199783264310042e-14,0.0,2.3254008293151855,-0.023253999650478363,0.05343056842684746,-0.02325400710105896,7.450580596923828e-09,0.0,0.04268048703670502,0.3241375684738159,0.8475260692717549,1.1538313627243042,0.7726175785064697,1.1965118646621704,0.830102264881134,2.1969473361968994,0.9970803260803223,,,,,,,
4599092000.0,139.22,3.690000057220459,12041169408.0,1809.872326546436,187.0,0.015177116729319096,770048.0,1611.0097317695618,1.6698448179752745e-14,0.0,2.31716251373291,-0.023171627894043922,0.05038418620824814,-0.023171624168753624,-3.725290298461914e-09,0.0,0.028343679383397102,0.3162110149860382,0.8699508903243671,1.1226017475128174,0.7984486222267151,1.1509454250335693,0.8768460750579834,2.2631430625915527,0.996936559677124,,,,,,,
4599092000.0,137.38,3.740000009536743,12041169408.0,1845.859777409964,188.0,0.015042005106806755,774144.0,1613.228751897812,1.6616916176381835e-14,0.0,2.3233284950256348,-0.023233285173773766,0.05485529825091362,-0.023233285173773766,0.0,0.0,0.024869177490472794,0.33033129572868347,0.8501327532933355,1.2087489366531372,0.7761480212211609,1.2336180210113525,0.8532892465591431,2.219020128250122,0.9970061779022217,,,,,,,
4599092000.0,135.16,3.4600000381469727,12041169408.0,1750.2531859333178,189.0,0.011314393021166325,778240.0,1615.568984746933,1.790234627208065e-14,0.0,2.315093517303467,-0.023150939494371414,0.08388257026672363,-0.023150933906435966,-5.587935447692871e-09,0.0,-0.011499004438519478,0.4094800055027008,0.8066163594472259,1.326208472251892,0.8404392600059509,1.3147094249725342,0.931156575679779,2.3402328491210938,0.9970283508300781,,,,,,,
4599092000.0,139.79,3.390000104904175,12041169408.0,1883.0980886737693,190.0,0.014207348227500916,782336.0,1617.7441236972809,1.7204987434737973e-14,0.0,2.30663800239563,-0.02306637167930603,0.0658714771270752,-0.023066379129886627,7.450580596923828e-09,0.0,0.03271262347698212,0.3615311086177826,0.8543521328615514,1.2423763275146484,0.8562074303627014,1.275088906288147,0.9473131895065308,2.1751389503479004,0.9974863529205322,,,,,,,
4599092000.0,136.1,3.509999990463257,12041169408.0,1876.3158949303154,191.0,0.01691870577633381,786432.0,1619.9271249771118,1.8762769116165146e-14,0.0,2.311927556991577,-0.023119281977415085,0.1648765653371811,-0.023119274526834488,-7.450580596923828e-09,0.0,0.028410088270902634,0.5736081004142761,0.6938012377889105,1.3836703300476074,0.8916022181510925,1.4120804071426392,1.036605715751648,2.1830012798309326,0.99704909324646,,,,,,,
,,,,,,,,,,,,,,,,,,,,,,,,,,0.02338154800236225,0.13692606985569,0.12623757123947144,0.02338154800236225,0.13692606985569,0.12623757123947144,
,,,,,,,,,,,,,,,,,,,,,,,,,,0.013445034623146057,0.10129310935735703,0.10109704732894897,0.013445034623146057,0.10129310935735703,0.10109704732894897,
,,,,,,,,,,,,,,,,,,,,,,,,,,0.012457386590540409,0.09237562119960785,0.09512510150671005,0.012457386590540409,0.09237562119960785,0.09512510150671005,
,,,,,,,,,,,,,,,,,,,,,,,,,,0.007354057859629393,0.08369501680135727,0.08293868601322174,0.007354057859629393,0.08369501680135727,0.08293868601322174,
,,,,,,,,,,,,,,,,,,,,,,,,,,0.00815629493445158,0.08131605386734009,0.08208301663398743,0.00815629493445158,0.08131605386734009,0.08208301663398743,
,,,,,,,,,,,,,,,,,,,,,,,,,,0.008064121007919312,0.082024484872818,0.08182449638843536,0.008064121007919312,0.082024484872818,0.08182449638843536,
,,,,,,,,,,,,,,,,,,,,,,,,,,,,,,,,4.6
4599236000.0,144.39,3.859999895095825,11990521856.0,17.036445009564222,192.0,0.016354069113731384,790528.0,1860.352870941162,1.6851103845638704e-14,0.0,2.2993855476379395,-0.022993845865130424,0.11468204855918884,-0.02299385517835617,9.313225746154785e-09,0.0,0.04872211068868637,0.47649309039115906,0.7449900938173101,1.1840412616729736,0.7601534128189087,1.232763409614563,0.9435786604881287,240.4257459640503,0.997143030166626,,,,,,,
4599236000.0,138.43,4.300000190734863,12041169408.0,1827.62368750248,193.0,0.016182979568839073,794624.0,1862.5940325260162,1.847827446610495e-14,0.0,2.273434638977051,-0.02273433469235897,0.17784588038921356,-0.022734345868229866,1.1175870895385742e-08,0.0,0.10461196303367615,0.5872242450714111,0.7376447485543518,1.1695291996002197,0.8358582258224487,1.2741410732269287,1.1464605331420898,2.241161584854126,0.9970533847808838,,,,,,,
4599236000.0,146.01,4.090000152587891,12041169408.0,1796.2654733294892,194.0,0.0160799790173769,798720.0,1864.874319076538,1.8431436932253575e-14,0.0,2.2798655033111572,-0.022798653692007065,0.1232307106256485,-0.022798653692007065,0.0,0.0,0.0028636623173952103,0.4965011775493622,0.8091968724235068,1.4884999990463257,0.9586758017539978,1.4913636445999146,1.1366519927978516,2.2802865505218506,0.9970202445983887,,,,,,,
4599236000.0,150.76,4.449999809265137,12041169408.0,1809.9445923068763,195.0,0.015287980437278748,802816.0,1867.1373717784882,1.8375925781022318e-14,0.0,2.279325246810913,-0.022793248295783997,0.11827114969491959,-0.022793252021074295,3.725290298461914e-09,0.0,-0.0420817956328392,0.4845913350582123,0.7817334441572555,1.5767210721969604,0.9566949605941772,1.5346393585205078,1.037246584892273,2.2630527019500732,0.9970941543579102,,,,,,,
4599236000.0,144.72,3.9800000190734863,12041169408.0,1832.5848639924734,196.0,0.015018170699477196,806912.0,1869.3724660873413,1.865174681370263e-14,0.0,2.2504584789276123,-0.02250458300113678,0.09345930814743042,-0.02250458486378193,1.862645149230957e-09,0.0,-0.05551689490675926,0.4288139045238495,0.8109625578374207,1.6645265817642212,0.9087947607040405,1.6090097427368164,0.9862679839134216,2.2350943088531494,0.996880292892456,,,,,,,
4599236000.0,146.8,3.8399999141693115,12041169408.0,1859.7557253957748,197.0,0.012812765315175056,811008.0,1871.574905872345,1.9522577998642987e-14,0.0,2.251429796218872,-0.02251429297029972,0.16326011717319489,-0.02251429669559002,3.725290298461914e-09,0.0,-0.0717308297753334,0.566968560218811,0.7535298918602399,1.529293417930603,1.0447633266448975,1.4575625658035278,1.1420282125473022,2.202439785003662,0.9971435070037842,,,,,,,
4599236000.0,135.55,3.1700000762939453,12041169408.0,1762.5615717818926,198.0,0.008963387459516525,815104.0,1873.8987963199615,1.9522577998642987e-14,0.0,2.227199077606201,-0.022272000089287758,0.07219737768173218,-0.02227199077606201,-9.313225746154785e-09,0.0,-0.08325167000293732,0.3708065152168274,0.8533275471614972,1.3912534713745117,0.8897996544837952,1.3080017566680908,0.9682178497314453,2.323890447616577,0.9970428943634033,,,,,,,
4599236000.0,140.22,3.3299999237060547,12041169408.0,1836.310503872261,199.0,0.01788477599620819,819200.0,1876.1293559074402,1.984697128865065e-14,0.0,2.2180676460266113,-0.022180665284395218,0.14397835731506348,-0.022180676460266113,1.1175870895385742e-08,0.0,0.14279785752296448,0.517330527305603,0.7961148175679431,1.749108076095581,0.9968669414520264,1.8919059038162231,1.1457114219665527,2.2305595874786377,0.9971504211425781,,,,,,,
4599236000.0,153.44,3.7699999809265137,12041169408.0,1869.7748682495226,200.0,0.01868702657520771,823296.0,1878.3199939727783,2.0528717614709535e-14,0.0,2.212019443511963,-0.022120198234915733,0.15588298439979553,-0.022120194509625435,-3.725290298461914e-09,0.0,-0.00965884793549776,0.5583447217941284,0.7992647390793403,1.525794267654419,1.096056342124939,1.516135334968567,1.2462080717086792,2.1906380653381348,0.9968879222869873,,,,,,,
4599236000.0,150.91,4.010000228881836,12041169408.0,1838.292107054045,201.0,0.01265911664813757,827392.0,1880.5481491088867,2.079759975348594e-14,0.0,2.17755126953125,-0.02177550457417965,0.0815146267414093,-0.021775512024760246,7.450580596923828e-09,0.0,-0.0206304918974638,0.40329065918922424,0.8101710470073681,1.324540138244629,0.8892709016799927,1.3039095401763916,0.9256287813186646,2.2281551361083984,0.9970302581787109,,,,,,,
4599236000.0,153.66,4.659999847412109,12041169408.0,1802.988069753291,202.0,0.017818428575992584,831488.0,1882.8199334144592,2.2256502196782435e-14,0.0,2.167843818664551,-0.021678438410162926,0.21566450595855713,-0.021678438410162926,0.0,0.0,0.11791808903217316,0.646162748336792,0.7904461718145204,1.5413364171981812,1.1261013746261597,1.6592544317245483,1.4115428924560547,2.2717843055725098,0.9969322681427002,,,,,,,
4599236000.0,151.98,4.360000133514404,12041169408.0,1826.8066871841943,203.0,0.015789521858096123,835584.0,1885.06209731102,2.5184715424231285e-14,0.0,2.118565082550049,-0.021185653284192085,0.07190799713134766,-0.021185649558901787,-3.725290298461914e-09,0.0,0.032150279730558395,0.37791165709495544,0.866659414334386,1.303984522819519,0.9666894674301147,1.336134672164917,1.0349253416061401,2.242163896560669,0.9974167346954346,,,,,,,
4599236000.0,150.5,4.449999809265137,12041169408.0,1841.314282266197,204.0,0.012627857737243176,839680.0,1887.2865953445435,2.6626270632768012e-14,0.0,2.097072124481201,-0.020970717072486877,0.12102404236793518,-0.020970720797777176,3.725290298461914e-09,0.0,0.009522516280412674,0.49195170402526855,0.811768551017164,1.4760295152664185,0.9408756494522095,1.4855520725250244,1.133904218673706,2.2244980335235596,0.9967801570892334,,,,,,,
4599236000.0,158.59,4.179999828338623,12041169408.0,1874.8446730651958,205.0,0.011289495043456554,843776.0,1889.4713096618652,2.776251450953282e-14,0.0,2.0726749897003174,-0.020726758986711502,0.1513359695672989,-0.020726749673485756,-9.313225746154785e-09,0.0,0.009036206640303135,0.5501492023468018,0.7609385631475647,1.7671635150909424,1.0545707941055298,1.7761995792388916,1.1251894235610962,2.1847143173217773,0.9969699382781982,,,,,,,
4599236000.0,166.49,4.340000152587891,12041169408.0,1812.1443055885036,206.0,0.01919740065932274,847872.0,1891.731615304947,2.6869131919404765e-14,0.0,2.081188678741455,-0.020811891183257103,0.22252890467643738,-0.020811885595321655,-5.587935447692871e-09,0.0,0.06317181885242462,0.6642099618911743,0.7962168453431342,1.8149418830871582,1.299896240234375,1.8781137466430664,1.4713677167892456,2.260305643081665,0.9969961643218994,,,,,,,
4599236000.0,173.06,5.110000133514404,12041169408.0,1785.4358646911987,207.0,0.02077053114771843,851968.0,1894.0257329940796,2.6629740079719966e-14,0.0,2.068425178527832,-0.0206842552870512,0.31239354610443115,-0.020684251561760902,-3.725290298461914e-09,0.0,0.07688595354557037,0.7867825627326965,0.8273007466892939,1.9429926872253418,1.6442103385925293,2.019878625869751,1.8932563066482544,2.2941176891326904,0.9972612857818604,,,,,,,
4599236000.0,168.26,5.199999809265137,12041169408.0,1867.2469868132014,208.0,0.01741083711385727,856064.0,1896.2193367481232,2.5528190672474693e-14,0.0,2.1441807746887207,-0.021441807970404625,0.23928296566009521,-0.021441807970404625,0.0,0.0,0.0355406329035759,0.690955400466919,0.8350854811718116,1.950941801071167,1.4961317777633667,1.9864826202392578,1.7014554738998413,2.193603754043579,0.9970548152923584,,,,,,,
4599236000.0,155.96,5.53000020980835,12041169408.0,1793.0055535586735,209.0,0.023181501775979996,860160.0,1898.503769159317,2.5614926846273534e-14,0.0,2.1362526416778564,-0.02136252634227276,0.23883655667304993,-0.02136252634227276,0.0,0.0,-0.017071833834052086,0.691012442111969,0.8388847664363597,2.45206356048584,1.6458635330200195,2.4349918365478516,1.7215418815612793,2.2844324111938477,0.9971919059753418,,,,,,,
4599236000.0,165.48,6.190000057220459,12041169408.0,1813.1516323449296,210.0,0.018188059329986572,864256.0,1900.7628190517426,2.307355695396751e-14,0.0,2.1206579208374023,-0.02120657078921795,0.5781128406524658,-0.021206578239798546,7.450580596923828e-09,0.0,0.05459430068731308,1.0740236043930054,0.7516621358655161,3.055339813232422,2.177759885787964,3.1099343299865723,2.155223846435547,2.259049892425537,0.9972753524780273,,,,,,,
4599236000.0,164.63,5.820000171661377,12041169408.0,1802.4241828834495,211.0,0.019836604595184326,868352.0,1903.0353140830994,2.2691917789252614e-14,0.0,2.151315689086914,-0.021513167768716812,0.36847013235092163,-0.021513156592845917,-1.1175870895385742e-08,0.0,0.11432217806577682,0.8509098291397095,0.8399662731602475,2.953157901763916,1.9273579120635986,3.0674800872802734,2.1270503997802734,2.2724950313568115,0.9973320960998535,,,,,,,
4599236000.0,179.19,6.289999961853027,12041169408.0,1829.2756592470057,212.0,0.017842646688222885,872448.0,1905.2744517326355,2.2799470644763176e-14,0.0,2.174243927001953,-0.021742429584264755,0.45206594467163086,-0.0217424388974905,8.381903171539307e-09,0.0,-0.1270694136619568,0.9424447417259216,0.6753688112769852,2.9011354446411133,1.606339454650879,2.7740657329559326,1.6540961265563965,2.239137649536133,0.997197151184082,,,,,,,
4599236000.0,176.95,5.880000114440918,12041169408.0,1854.0787057007526,213.0,0.015658384189009666,876544.0,1907.483635187149,2.1239954239860026e-14,0.0,2.1822657585144043,-0.02182265929877758,0.3077717423439026,-0.02182265743613243,-1.862645149230957e-09,0.0,-0.12062783539295197,0.7753315567970276,0.7186571690713506,3.0642638206481934,1.3661730289459229,2.943635940551758,1.4617383480072021,2.20918345451355,0.9969327449798584,,,,,,,
4599236000.0,193.45,6.590000152587891,12041169408.0,1857.2757259241234,214.0,0.020373722538352013,880640.0,1909.689015865326,2.017309930213429e-14,0.0,2.214599370956421,-0.022145990282297134,0.328538715839386,-0.022145994007587433,3.725290298461914e-09,0.0,0.07915811240673065,0.8068273067474365,0.800642324599048,2.650700092315674,1.5957262516021729,2.729858160018921,1.8070248365402222,2.20538067817688,0.9971804618835449,,,,,,,
4599236000.0,180.42,5.53000020980835,12041169408.0,1865.3580378976756,215.0,0.01683443784713745,884736.0,1911.884840965271,1.951043493431115e-14,0.0,2.3051352500915527,-0.023051343858242035,0.2897176742553711,-0.023051351308822632,6.51925802230835e-09,0.0,-0.041056178510189056,0.7601913213729858,0.8131676889822645,2.3487133979797363,1.5997886657714844,2.307657241821289,1.7587205171585083,2.1958250999450684,0.9970598220825195,,,,,,,
4599236000.0,174.98,5.440000057220459,12041169408.0,1863.5331429940654,216.0,0.01383537519723177,888832.0,1914.082816362381,1.9019508190609713e-14,0.0,2.2825636863708496,-0.022825635969638824,0.2440735399723053,-0.022825635969638824,0.0,0.0,0.03538472577929497,0.697863757610321,0.816777935688989,2.228116035461426,1.4396753311157227,2.263500690460205,1.630353331565857,2.1979753971099854,0.9970643520355225,,,,,,,
4599236000.0,181.94,5.809999942779541,12041169408.0,1836.3195327204596,217.0,0.014383102767169476,892928.0,1916.313364982605,1.6762632948363887e-14,0.0,2.3142735958099365,-0.023142728954553604,0.25460392236709595,-0.023142734542489052,4.6566128730773926e-09,0.0,-0.0021773651242256165,0.7136718034744263,0.7963954349664588,2.2732815742492676,1.5115516185760498,2.271104335784912,1.581629991531372,2.230548620223999,0.9968926906585693,,,,,,,
4599236000.0,179.47,5.599999904632568,12041169408.0,1803.2912503390382,218.0,0.021438011899590492,897024.0,1918.5847673416138,1.5449447277049444e-14,0.0,2.3557615280151367,-0.023557621985673904,0.35006237030029297,-0.023557614535093307,-7.450580596923828e-09,0.0,0.08319582045078278,0.8326898813247681,0.7082432673951116,1.9922478199005127,1.2600064277648926,2.075443744659424,1.5416041612625122,2.271402359008789,0.9971685409545898,,,,,,,
4599236000.0,166.9,5.050000190734863,12041169408.0,1824.860609966959,219.0,0.0097469761967659,901120.0,1920.8293223381042,1.412585326487914e-14,0.0,2.393575668334961,-0.023935753852128983,0.19279152154922485,-0.023935755714774132,2.7939677238464355e-09,0.0,-0.11532493680715561,0.6102246642112732,0.8233736081383162,1.8836617469787598,1.3892300128936768,1.7683367729187012,1.4519842863082886,2.2445549964904785,0.9969642162322998,,,,,,,
4599236000.0,172.53,4.449999809265137,12041169408.0,1854.1779581891558,220.0,0.012490356341004372,905216.0,1923.0383875370026,1.454912579301748e-14,0.0,2.4044880867004395,-0.024044865742325783,0.23596057295799255,-0.024044880643486977,1.4901161193847656e-08,0.0,-0.04977824538946152,0.6852429509162903,0.7608320526651036,2.4511542320251465,1.305371642112732,2.401376247406006,1.4011772871017456,2.2090651988983154,0.997154951095581,,,,,,,
4599236000.0,172.72,4.659999847412109,12041169408.0,1895.8212034980927,221.0,0.02063632756471634,909312.0,1925.1989288330078,1.4835355166553654e-14,0.0,2.392861843109131,-0.023928608745336533,0.2732309103012085,-0.02392861805856228,1.0244548320770264e-08,0.0,0.07439535856246948,0.7355672717094421,0.7890716260429886,2.171461820602417,1.3355876207351685,2.2458572387695312,1.6016031503677368,2.160541296005249,0.9972929954528809,,,,,,,
4599236000.0,173.24,4.5,12041169408.0,1849.4680030448633,222.0,0.01259818859398365,913408.0,1927.4136197566986,1.450575770611806e-14,0.0,2.394310235977173,-0.0239430982619524,0.2620522081851959,-0.0239431019872427,3.725290298461914e-09,0.0,-0.01835259050130844,0.7238062620162964,0.6788575276326432,1.8618890047073364,1.1850589513778687,1.843536376953125,1.2772427797317505,2.214690923690796,0.9970171451568604,,,,,,,
4599236000.0,172.91,4.46999979019165,12041169408.0,1789.430652993007,223.0,0.014005923643708229,917504.0,1929.7026159763336,1.342502498058451e-14,0.0,2.418813705444336,-0.02418813481926918,0.14602041244506836,-0.02418813668191433,1.862645149230957e-09,0.0,0.0390191525220871,0.5390633344650269,0.8057608234150193,1.5873324871063232,1.1933056116104126,1.6263515949249268,1.2231262922286987,2.2889962196350098,0.9970097541809082,,,,,,,
,,,,,,,,,,,,,,,,,,,,,,,,,,0.077773816883564,0.604403018951416,0.6492603421211243,0.077773816883564,0.604403018951416,0.6492603421211243,
,,,,,,,,,,,,,,,,,,,,,,,,,,0.03348551690578461,0.38208600878715515,0.39445045590400696,0.03348551690578461,0.38208600878715515,0.39445045590400696,
,,,,,,,,,,,,,,,,,,,,,,,,,,0.024306846782565117,0.3362145721912384,0.3379914462566376,0.024306846782565117,0.3362145721912384,0.3379914462566376,
,,,,,,,,,,,,,,,,,,,,,,,,,,0.01858861930668354,0.31544333696365356,0.3245537281036377,0.01858861930668354,0.31544333696365356,0.3245537281036377,
,,,,,,,,,,,,,,,,,,,,,,,,,,0.019134290516376495,0.29831960797309875,0.30585676431655884,0.019134290516376495,0.29831960797309875,0.30585676431655884,
,,,,,,,,,,,,,,,,,,,,,,,,,,0.01644235849380493,0.28027239441871643,0.28226134181022644,0.01644235849380493,0.28027239441871643,0.28226134181022644,
,,,,,,,,,,,,,,,,,,,,,,,,,,,,,,,,4.12
4599236000.0,175.95,4.559999942779541,11990521856.0,17.0096984286514,224.0,0.012224024161696434,921600.0,2170.5064148902893,1.5459855617905305e-14,0.0,2.408504009246826,-0.024085046723484993,0.12426162511110306,-0.024085039272904396,-7.450580596923828e-09,0.0,-0.06725821644067764,0.4940234422683716,0.7879433031307048,1.758367657661438,0.9652977585792542,1.6911094188690186,1.0728068351745605,240.8037989139557,0.9968953132629395,,,,,,,
4599236000.0,170.26,4.099999904632568,12041169408.0,1821.7743118322385,225.0,0.011920414865016937,925696.0,2172.754772424698,1.522913739560039e-14,0.0,2.40462589263916,-0.024046266451478004,0.12499670684337616,-0.024046259000897408,-7.916241884231567e-09,0.0,-0.024497147649526596,0.49945390224456787,0.8689895477089047,1.5887539386749268,1.19925856590271,1.5642569065093994,1.3798835277557373,2.2483575344085693,0.9966938495635986,,,,,,,
4599236000.0,166.2,4.050000190734863,12041169408.0,1798.6112881410834,226.0,0.01683805137872696,929792.0,2175.032084941864,1.5895271210375483e-14,0.0,2.392571449279785,-0.02392570674419403,0.17575152218341827,-0.023925714194774628,7.450580596923828e-09,0.0,0.0580739751458168,0.5900978446006775,0.8634231468799042,1.6652493476867676,1.3417866230010986,1.7233232259750366,1.5967446565628052,2.2773125171661377,0.9970154762268066,,,,,,,
4599236000.0,161.6,3.9000000953674316,12041169408.0,1842.2438726963333,227.0,0.011272088624536991,933888.0,2177.255460500717,1.487525380650112e-14,0.0,2.416139841079712,-0.024161390960216522,0.12800100445747375,-0.02416139841079712,8.381903171539307e-09,0.0,0.048632021993398666,0.5036852955818176,0.8297780224030982,1.6763114929199219,1.1251438856124878,1.7249435186386108,1.2208195924758911,2.2233755588531494,0.9968228340148926,,,,,,,
4599236000.0,181.03,5.079999923706055,12041169408.0,1824.5854011240297,228.0,0.019967399537563324,937984.0,2179.50035405159,1.526209714164395e-14,0.0,2.3895645141601562,-0.02389565296471119,0.22120368480682373,-0.023895645514130592,-7.450580596923828e-09,0.0,0.13057580590248108,0.6522738337516785,0.8260689404722026,1.8873939514160156,1.311109185218811,2.017969846725464,1.5640168190002441,2.2448935508728027,0.9968233108520508,,,,,,,
4599236000.0,171.98,4.550000190734863,12041169408.0,1786.8471843993532,229.0,0.013884240761399269,942080.0,2181.7926597595215,1.625609369337866e-14,0.0,2.3787665367126465,-0.023787660524249077,0.12272457778453827,-0.023787664249539375,3.725290298461914e-09,0.0,0.06969833374023438,0.49056094884872437,0.8768365789678155,1.7945430278778076,1.2608500719070435,1.864241361618042,1.3978227376937866,2.2923057079315186,0.9968953132629395,,,,,,,
4599236000.0,189.63,5.389999866485596,12041169408.0,1876.308722630312,230.0,0.019439347088336945,946176.0,2183.9756693840027,1.6991616447192825e-14,0.0,2.378786563873291,-0.023787852376699448,0.17357590794563293,-0.023787865415215492,1.30385160446167e-08,0.0,0.0785742700099945,0.5840044021606445,0.8401595757409698,1.9047067165374756,1.2805510759353638,1.983280897140503,1.4607398509979248,2.183009624481201,0.9968950748443604,,,,,,,
4599236000.0,200.63,5.610000133514404,12041169408.0,1864.830173138534,231.0,0.014800961129367352,950272.0,2186.1721160411835,1.6039253258881558e-14,0.0,2.3560495376586914,-0.023560503497719765,0.20379379391670227,-0.02356049418449402,-9.313225746154785e-09,0.0,0.08069653064012527,0.6333826184272766,0.794468505352877,1.9598138332366943,1.3097373247146606,2.0405101776123047,1.397098183631897,2.196446657180786,0.996976375579834,,,,,,,
4599236000.0,214.73,6.610000133514404,12041169408.0,1840.3189950539177,232.0,0.017791952937841415,954368.0,2188.397817134857,1.813479921786154e-14,0.0,2.3254215717315674,-0.023254211992025375,0.19159343838691711,-0.023254215717315674,3.725290298461914e-09,0.0,0.09231652319431305,0.6121731996536255,0.8414331060272128,1.8909415006637573,1.347926378250122,1.9832580089569092,1.537333369255066,2.225701093673706,0.9969649314880371,,,,,,,
4599236000.0,223.25,6.559999942779541,12041169408.0,1882.0787799479301,233.0,0.01685972511768341,958464.0,2190.5741341114044,1.8030715809302933e-14,0.0,2.3183093070983887,-0.02318308874964714,0.19178776443004608,-0.02318309247493744,3.725290298461914e-09,0.0,0.08712839335203171,0.6132503747940063,0.85496016192971,2.573928117752075,1.4367672204971313,2.6610565185546875,1.6102532148361206,2.176316976547241,0.9969468116760254,,,,,,,
4599236000.0,228.75,6.960000038146973,12041169408.0,1862.1438537674828,234.0,0.01833575963973999,962560.0,2192.7737493515015,1.9550333574258616e-14,0.0,2.3031346797943115,-0.023031355813145638,0.3440678119659424,-0.02303134649991989,-9.313225746154785e-09,0.0,0.009990296326577663,0.8295804858207703,0.8198642587185222,2.6636462211608887,1.8043675422668457,2.6736364364624023,1.9546034336090088,2.199615240097046,0.9967799186706543,,,,,,,
4599236000.0,232.46,7.360000133514404,12041169408.0,1792.9454868411096,235.0,0.016138020902872086,966656.0,2195.058258295059,1.872807464664561e-14,0.0,2.2853124141693115,-0.02285313792526722,0.18921323120594025,-0.022853123024106026,-1.4901161193847656e-08,0.0,0.027539744973182678,0.6146219968795776,0.8495695718847074,2.6474545001983643,1.4065001010894775,2.6749942302703857,1.5846750736236572,2.2845089435577393,0.9969346523284912,,,,,,,
4599236000.0,229.6,7.5,12041169408.0,1870.3605135365378,236.0,0.021600112318992615,970752.0,2197.2482104301453,1.7838161503469507e-14,0.0,2.2929000854492188,-0.022928999736905098,0.3060093820095062,-0.022928999736905098,0.0,0.0,-0.01395735889673233,0.7822872400283813,0.8583147710815417,3.152360439300537,1.9519327878952026,3.1384031772613525,2.078279495239258,2.1899521350860596,0.9969997406005859,,,,,,,
4599236000.0,228.48,7.409999847412109,12041169408.0,1801.7251580532957,237.0,0.012465804815292358,974848.0,2199.5215871334076,1.7990817169355466e-14,0.0,2.27809739112854,-0.022780973464250565,0.25945115089416504,-0.022780973464250565,0.0,0.0,-0.07427489757537842,0.7165967226028442,0.8481848830194596,3.051680326461792,1.7106269598007202,2.977405548095703,1.8391509056091309,2.273376703262329,0.996661901473999,,,,,,,
4599236000.0,223.38,6.75,12041169408.0,1894.7866152930737,238.0,0.01043962687253952,978944.0,2201.6833081245422,2.0242488241173362e-14,0.0,2.279438018798828,-0.022794388234615326,0.3584405183792114,-0.02279437892138958,-9.313225746154785e-09,0.0,-0.15623661875724792,0.8322501182556152,0.7405020158655411,2.8365941047668457,1.6670024394989014,2.6803576946258545,1.6337549686431885,2.1617209911346436,0.996953010559082,,,,,,,
4599236000.0,222.12,6.380000114440918,12041169408.0,1801.7527458323138,239.0,0.014670979231595993,983040.0,2203.956650018692,1.941849459008438e-14,0.0,2.268691062927246,-0.022686908021569252,0.2686871290206909,-0.0226869098842144,1.862645149230957e-09,0.0,-0.0743393525481224,0.7293680906295776,0.821947154201539,2.681950330734253,1.6088711023330688,2.6076109409332275,1.7285113334655762,2.2733418941497803,0.9970271587371826,,,,,,,
4599236000.0,219.17,5.929999828338623,12041169408.0,1836.8924572537007,240.0,0.011615624651312828,987136.0,2206.186502933502,2.0301468839356573e-14,0.0,2.2509469985961914,-0.02250947430729866,0.23986077308654785,-0.022509468719363213,-5.587935447692871e-09,0.0,-0.020598070695996284,0.6923975348472595,0.8620876620387007,2.7363038063049316,1.6895685195922852,2.715705633163452,1.8644638061523438,2.2298529148101807,0.996950626373291,,,,,,,
4599236000.0,218.61,5.239999771118164,12041169408.0,1811.5431590790583,241.0,0.01724782958626747,991232.0,2208.4475586414337,2.0690046897975378e-14,0.0,2.2418174743652344,-0.022418180480599403,0.361547589302063,-0.022418174892663956,-5.587935447692871e-09,0.0,0.01937641203403473,0.8502330183982849,0.8127600173129206,2.7282605171203613,1.8744852542877197,2.7476372718811035,1.9648921489715576,2.2610557079315186,0.9969878196716309,,,,,,,
4599236000.0,215.37,5.5,12041169408.0,1842.1887582309364,242.0,0.010274399071931839,995328.0,2210.6710007190704,1.9794929584371346e-14,0.0,2.248663902282715,-0.02248661406338215,0.19025984406471252,-0.02248663827776909,2.421438694000244e-08,0.0,-0.03941705822944641,0.6156772971153259,0.8621272740444701,2.5537526607513428,1.5153658390045166,2.5143356323242188,1.6581124067306519,2.2234420776367188,0.9971046447753906,,,,,,,
4599236000.0,214.36,4.880000114440918,12041169408.0,1845.4332788077766,243.0,0.007114413194358349,999424.0,2212.890533685684,2.1425569651789544e-14,0.0,2.266300678253174,-0.022663000971078873,0.41841429471969604,-0.02266300655901432,4.6566128730773926e-09,0.0,-0.17968851327896118,0.897071361541748,0.6633786374803312,2.067028284072876,1.523755669593811,1.8873398303985596,1.546166181564331,2.2195329666137695,0.9968633651733398,,,,,,,
4599236000.0,209.01,4.320000171661377,12041169408.0,1881.778623379733,244.0,0.0074244230054318905,1003520.0,2215.0671977996826,2.0483614804334138e-14,0.0,2.2453525066375732,-0.022453535348176956,0.18978023529052734,-0.02245352417230606,-1.1175870895385742e-08,0.0,-0.06818574666976929,0.6123746633529663,0.8034369046335997,1.9399733543395996,1.3032095432281494,1.8717875480651855,1.3812304735183716,2.176664113998413,0.9967470169067383,,,,,,,
4599236000.0,215.01,4.619999885559082,12041169408.0,1775.4482352654243,245.0,0.017504993826150894,1007616.0,2217.3742208480835,2.0865253969049036e-14,0.0,2.2424168586730957,-0.02242417447268963,0.2156381458044052,-0.02242416888475418,-5.587935447692871e-09,0.0,0.08868645131587982,0.6507798433303833,0.8587686117575724,1.8662874698638916,1.5196802616119385,1.9549739360809326,1.7316834926605225,2.307023048400879,0.9972028732299805,,,,,,,
4599236000.0,214.71,4.239999771118164,12041169408.0,1775.861902634477,246.0,0.00946018472313881,1011712.0,2219.680706501007,1.9763704561803763e-14,0.0,2.2669472694396973,-0.0226694755256176,0.20723579823970795,-0.0226694718003273,-3.725290298461914e-09,0.0,0.042878612875938416,0.6424435973167419,0.7559656272093128,1.678734302520752,1.140750765800476,1.721612811088562,1.30049729347229,2.306485652923584,0.996985912322998,,,,,,,
4599236000.0,215.49,4.900000095367432,12041169408.0,1850.4877638526975,247.0,0.020565582439303398,1015808.0,2221.8941769599915,1.9187776367779463e-14,0.0,2.294233798980713,-0.022942321375012398,0.41683709621429443,-0.02294233813881874,1.6763806343078613e-08,0.0,0.16315028071403503,0.898472785949707,0.76025696584004,1.6145656108856201,1.3466876745224,1.7777159214019775,1.8349823951721191,2.213470458984375,0.996807336807251,,,,,,,
4599236000.0,212.42,4.920000076293945,12041169408.0,1862.4888617331078,248.0,0.013893259689211845,1019904.0,2224.093384742737,1.9279716712006234e-14,0.0,2.331031560897827,-0.023310326039791107,0.14322441816329956,-0.023310314863920212,-1.1175870895385742e-08,0.0,0.09900904446840286,0.526035726070404,0.7465594035722816,1.4212322235107422,1.0171597003936768,1.5202412605285645,1.0449059009552002,2.1992077827453613,0.9969358444213867,,,,,,,
4599236000.0,225.66,6.139999866485596,12041169408.0,1809.316321136925,249.0,0.01846950128674507,1024000.0,2226.3572232723236,1.8965731762854432e-14,0.0,2.3162503242492676,-0.02316250652074814,0.23799455165863037,-0.02316250279545784,-4.190951585769653e-09,0.0,0.15832778811454773,0.6715888381004333,0.8317318750160403,1.6592944860458374,1.4233952760696411,1.817622184753418,1.6372029781341553,2.263838529586792,0.9969692230224609,,,,,,,
4599236000.0,233.53,6.599999904632568,12041169408.0,1822.5785018545248,250.0,0.011524162255227566,1028096.0,2228.6045887470245,1.9364718162329098e-14,0.0,2.3022398948669434,-0.023022392764687538,0.16679799556732178,-0.023022398352622986,5.587935447692871e-09,0.0,0.11599858105182648,0.5658785104751587,0.8295705376447612,1.7898669242858887,1.1872859001159668,1.9058654308319092,1.3707265853881836,2.2473654747009277,0.9968264102935791,,,,,,,
4599236000.0,232.9,7.119999885559082,12041169408.0,1832.7176063629709,251.0,0.02142798900604248,1032192.0,2230.8395211696625,1.8979609550662246e-14,0.0,2.2967419624328613,-0.02296743355691433,0.1861553192138672,-0.022967418655753136,-1.4901161193847656e-08,0.0,0.09881283342838287,0.6021919846534729,0.890776613906525,1.8234632015228271,1.503516674041748,1.9222757816314697,1.8221206665039062,2.2349324226379395,0.9971680641174316,,,,,,,
4599236000.0,222.68,6.179999828338623,12041169408.0,1820.7072138495193,252.0,0.018365757539868355,1036288.0,2233.0891964435577,2.090688733247248e-14,0.0,2.302889823913574,-0.023028889670968056,0.20278067886829376,-0.023028897121548653,7.450580596923828e-09,0.0,0.01856251247227192,0.6366441249847412,0.8258700696026109,1.844833493232727,1.3293606042861938,1.8633959293365479,1.5256679058074951,2.2496752738952637,0.9968883991241455,,,,,,,
4599236000.0,222.85,6.800000190734863,12041169408.0,1842.3070904805938,253.0,0.014575188979506493,1040384.0,2235.3124957084656,2.028759105154876e-14,0.0,2.3144173622131348,-0.023144187405705452,0.18559668958187103,-0.023144172504544258,-1.4901161193847656e-08,0.0,0.08164799958467484,0.6038344502449036,0.7826804154533966,2.357386589050293,1.312262773513794,2.4390347003936768,1.2952944040298462,2.223299264907837,0.9968771934509277,,,,,,,
4599236000.0,232.84,7.829999923706055,12041169408.0,1862.4898713061737,254.0,0.023857813328504562,1044480.0,2237.511702299118,2.014534372651866e-14,0.0,2.280341386795044,-0.0228034146130085,0.33799540996551514,-0.02280341275036335,-1.862645149230957e-09,0.0,0.22902798652648926,0.7897400259971619,0.8699979454764193,2.4555835723876953,1.9246574640274048,2.6846115589141846,2.1903274059295654,2.199206590652466,0.9968223571777344,,,,,,,
4599236000.0,230.47,7.860000133514404,12041169408.0,1809.7083675948077,255.0,0.01983022689819336,1048576.0,2239.7750504016876,2.0454124505242532e-14,0.0,2.293933868408203,-0.022939344868063927,0.2952316105365753,-0.02293933741748333,-6.984919309616089e-09,0.0,0.13406693935394287,0.7567225694656372,0.8515457107096317,2.515352725982666,1.721837043762207,2.6494195461273193,1.9639946222305298,2.26334810256958,0.997236967086792,,,,,,,
,,,,,,,,,,,,,,,,,,,,,,,,,,0.020795950666069984,0.39394235610961914,0.32979485392570496,0.020795950666069984,0.39394235610961914,0.32979485392570496,
,,,,,,,,,,,,,,,,,,,,,,,,,,0.018060406669974327,0.2962956428527832,0.27472829818725586,0.018060406669974327,0.2962956428527832,0.27472829818725586,
,,,,,,,,,,,,,,,,,,,,,,,,,,0.015389681793749332,0.27600979804992676,0.25841930508613586,0.015389681793749332,0.27600979804992676,0.25841930508613586,
,,,,,,,,,,,,,,,,,,,,,,,,,,0.012335337698459625,0.25003498792648315,0.2402925342321396,0.012335337698459625,0.25003498792648315,0.2402925342321396,
,,,,,,,,,,,,,,,,,,,,,,,,,,0.011045032180845737,0.23165395855903625,0.23143891990184784,0.011045032180845737,0.23165395855903625,0.23143891990184784,
,,,,,,,,,,,,,,,,,,,,,,,,,,0.010814572684466839,0.23547255992889404,0.23088884353637695,0.010814572684466839,0.23547255992889404,0.23088884353637695,
,,,,,,,,,,,,,,,,,,,,,,,,,,,,,,,,6.64
