CpuMaxMemory,EpLenMean,EpRewMean,GpuMaxMemory,IPS_total,Iter,Misc/FrameRewMean,Misc/InteractCount,Misc/TimeElapsed,Opt/approxkl,Opt/clipfrac,Opt/entropy,Opt/loss_pi,Opt/loss_vf,Opt/negent,Opt/pg,Opt/pi_kl,VFStats/AdvMean,VFStats/AdvStd,VFStats/EV,VFStats/VpredMean,VFStats/VpredStd,VFStats/VtargMean,VFStats/VtargStd,del_time,wait_optimization,scaled/pol_distance,scaled/vf_aux,scaled/vf_true,unscaled/pol_distance,unscaled/vf_aux,unscaled/vf_true,EvalEpMean
3033084000.0,71.6938775510204,-2.1632652282714844,11965495808.0,1187.9088478378821,0.0,-0.01423630304634571,4096.0,3.448076009750366,2.6922908347160046e-15,0.0,2.707399845123291,-0.027074012905359268,0.1946505606174469,-0.027073998004198074,-1.4901161193847656e-08,0.0,-0.2062523066997528,0.5889361500740051,-0.0006126841105389413,-0.03584287315607071,0.01123691163957119,-0.24209515750408173,0.5887558460235596,3.448076009750366,1.0425639152526855,,,,,,,
3084108000.0,76.81052631578947,-2.0,12031147008.0,1268.84207411911,1.0,-0.012441477738320827,8192.0,6.676216125488281,2.6506574712925612e-15,0.0,2.705537796020508,-0.027055377140641212,0.19335831701755524,-0.027055377140641212,0.0,0.0,-0.10512685775756836,0.6129899621009827,-0.01813988946100542,-0.39176326990127563,0.09172890335321426,-0.496890127658844,0.607504665851593,3.228140115737915,0.9989378452301025,,,,,,,
3133476000.0,85.52,-2.4700000286102295,12031147008.0,1315.4895931959113,2.0,-0.015504911541938782,12288.0,9.789885759353638,3.5041414214731503e-15,0.0,2.7002151012420654,-0.02700215019285679,0.24209614098072052,-0.02700215019285679,0.0,0.0,-0.05872165784239769,0.6934416890144348,0.15809424389020865,-0.8933557271957397,0.20799773931503296,-0.9520773887634277,0.7557500600814819,3.1136696338653564,0.9992225170135498,,,,,,,
3182580000.0,81.79,-2.640000104904175,12031147008.0,1344.561986736163,3.0,-0.01574491336941719,16384.0,12.836230993270874,4.163336342344337e-15,0.0,2.6908395290374756,-0.02690838649868965,0.40563374757766724,-0.02690839394927025,7.450580596923828e-09,0.0,0.20870530605316162,0.8762973546981812,0.037567647708434015,-1.7409968376159668,0.40039074420928955,-1.5322916507720947,0.8932362198829651,3.0463452339172363,0.9988641738891602,,,,,,,
3231948000.0,76.29,-2.4100000858306885,12031147008.0,1280.0728457897615,4.0,-0.010439050383865833,20480.0,16.036048889160156,4.551914400963142e-15,0.0,2.6875932216644287,-0.026875905692577362,0.25117027759552,-0.02687593176960945,2.60770320892334e-08,0.0,0.2074585258960724,0.6778005957603455,0.003816537091559158,-1.3405635356903076,0.30788925290107727,-1.1331050395965576,0.6790976524353027,3.1998178958892822,0.998542308807373,,,,,,,
3281052000.0,73.98,-2.2300000190734863,12031147008.0,1290.0850564510376,5.0,-0.014473285526037216,24576.0,19.2110333442688,4.5727310826748635e-15,0.0,2.6773462295532227,-0.02677345648407936,0.24222300946712494,-0.02677346207201481,4.6566128730773926e-09,0.0,-0.016066495329141617,0.6959210634231567,0.0004253301223697825,-0.8535642027854919,0.19605445861816406,-0.8696306943893433,0.696069061756134,3.1749844551086426,0.9990353584289551,,,,,,,
3330156000.0,75.5,-2.5299999713897705,12031147008.0,1334.7691029211155,6.0,-0.015022723004221916,28672.0,22.279728889465332,5.23192600354605e-15,0.0,2.638397693634033,-0.026383964344859123,0.1988246887922287,-0.02638397552073002,1.1175870895385742e-08,0.0,-0.04315557703375816,0.6291928291320801,0.035608967476851494,-0.6443639993667603,0.13378900289535522,-0.6875195503234863,0.6407036185264587,3.068695545196533,1.0003154277801514,,,,,,,
3379524000.0,76.52,-1.940000057220459,12031147008.0,1324.5829890329398,7.0,-0.00757873710244894,32768.0,25.37202286720276,5.35162192338845e-15,0.0,2.5333409309387207,-0.025333408266305923,0.13772618770599365,-0.025333408266305923,0.0,0.0,0.0034061316400766373,0.5248885750770569,0.05627606884037195,-0.5245109796524048,0.10910128802061081,-0.5211048722267151,0.5403120517730713,3.0922939777374268,0.9990291595458984,,,,,,,
3428628000.0,75.23,-1.4299999475479126,12031147008.0,1283.966741869226,8.0,-0.009425154887139797,36864.0,28.56213665008545,6.702971511174383e-15,0.0,2.2829763889312744,-0.022829758003354073,0.13791105151176453,-0.02282976359128952,5.587935447692871e-09,0.0,-0.038977161049842834,0.5238032937049866,0.04389164061836992,-0.43516460061073303,0.09693314135074615,-0.47414177656173706,0.5356913208961487,3.1901137828826904,0.9993100166320801,,,,,,,
3477732000.0,71.61,-1.7999999523162842,12031147008.0,1293.469172020588,9.0,-0.012333639897406101,40960.0,31.728814363479614,7.287573322578567e-15,0.0,1.9581880569458008,-0.019581874832510948,0.14471882581710815,-0.019581880420446396,5.587935447692871e-09,0.0,-0.04927041009068489,0.5357986092567444,0.0038075851186039067,-0.4046623706817627,0.10688261687755585,-0.4539327621459961,0.5368216037750244,3.166677713394165,0.9993140697479248,,,,,,,
3527100000.0,71.95,-1.6699999570846558,12031147008.0,1283.709813916701,10.0,-0.011916007846593857,45056.0,34.91956663131714,9.228728892196614e-15,0.0,1.4998730421066284,-0.014998719096183777,0.14152966439723969,-0.014998730272054672,1.1175870895385742e-08,0.0,-0.07226186990737915,0.5271673202514648,0.04844267970507976,-0.42532187700271606,0.12361463159322739,-0.4975837469100952,0.5404195189476013,3.1907522678375244,0.9993703365325928,,,,,,,
3576468000.0,74.82,-1.4700000286102295,12031147008.0,1244.760296973956,11.0,-0.004957919474691153,49152.0,38.21016001701355,6.723788192886104e-15,0.0,0.7449883818626404,-0.0074498835019767284,0.08308357745409012,-0.0074498835019767284,0.0,0.0,0.05668027698993683,0.4037255346775055,0.009674520364935324,-0.49133655428886414,0.1279766857624054,-0.4346562922000885,0.4056927561759949,3.290593385696411,0.9985854625701904,,,,,,,
3625836000.0,74.36,-1.2899999618530273,12031147008.0,1306.4016742752344,12.0,-0.01131029799580574,53248.0,41.345489740371704,6.3074545586516706e-15,0.0,0.6880810856819153,-0.006880810484290123,0.12885645031929016,-0.006880810484290123,0.0,0.0,-0.0035417345352470875,0.507703959941864,0.13333198807557867,-0.5345067977905273,0.18239726126194,-0.538048505783081,0.5453610420227051,3.1353297233581543,0.9988536834716797,,,,,,,
3676788000.0,70.26,-1.3799999952316284,12031147008.0,1313.3896263446866,13.0,-0.008506102487444878,57344.0,44.46413779258728,5.856426454897701e-15,0.0,0.5356566309928894,-0.005356566049158573,0.10996010899543762,-0.005356566049158573,0.0,0.0,0.0451456755399704,0.4668353796005249,0.09672989663454679,-0.5532311201095581,0.17231512069702148,-0.5080853700637817,0.4911961555480957,3.118648052215576,0.9990501403808594,,,,,,,
3726156000.0,72.92,-0.9200000166893005,12031147008.0,1324.462797036943,14.0,-0.005221615079790354,61440.0,47.55671238899231,6.404599073306372e-15,0.0,0.6418871879577637,-0.006418882869184017,0.08756958693265915,-0.006418871693313122,-1.1175870895385742e-08,0.0,0.05160051956772804,0.4153537154197693,0.10427435347086622,-0.4841744303703308,0.18514107167720795,-0.43257391452789307,0.43886467814445496,3.0925745964050293,0.9990477561950684,,,,,,,
3775524000.0,75.82,-0.8899999856948853,12031147008.0,1312.0076637715727,15.0,-0.005660751834511757,65536.0,50.67864537239075,6.897260540483785e-15,0.0,0.7933194637298584,-0.007933191023766994,0.07986696064472198,-0.007933194749057293,3.725290298461914e-09,0.0,0.0034741777926683426,0.39970096945762634,0.10010174689937712,-0.39819031953811646,0.12470430135726929,-0.39471614360809326,0.42134562134742737,3.1219329833984375,0.9990863800048828,,,,,,,
3824628000.0,74.68,-0.8999999761581421,12031147008.0,1345.0107342538402,16.0,-0.007089029531925917,69632.0,53.72397422790527,8.826273045769994e-15,0.0,1.1023210287094116,-0.011023204773664474,0.08941943943500519,-0.011023210361599922,5.587935447692871e-09,0.0,0.023517418652772903,0.4222905933856964,0.06725433305997475,-0.3657764196395874,0.15107467770576477,-0.3422589898109436,0.43724995851516724,3.0453288555145264,0.9990692138671875,,,,,,,
3874260000.0,72.14,-0.9599999785423279,12031147008.0,1347.6625825694755,17.0,-0.007761240005493164,73728.0,56.76331067085266,1.1225395613045919e-14,0.0,1.542074203491211,-0.015420735813677311,0.10444515198469162,-0.015420741401612759,5.587935447692871e-09,0.0,-0.02549845539033413,0.45638906955718994,0.10000279498634768,-0.29528170824050903,0.128426194190979,-0.3207801580429077,0.48107707500457764,3.0393364429473877,0.9999980926513672,,,,,,,
3923628000.0,71.16,-1.3600000143051147,12031147008.0,1326.4377489454237,18.0,-0.011174005456268787,77824.0,59.8512806892395,8.19830314746639e-15,0.0,1.9499094486236572,-0.019499093294143677,0.17885524034500122,-0.019499093294143677,0.0,0.0,-0.10265236347913742,0.5892857909202576,0.010347885127399814,-0.22903670370578766,0.08432481437921524,-0.3316890597343445,0.5923585891723633,3.087970018386841,0.9989409446716309,,,,,,,
3972996000.0,73.5,-1.5199999809265137,12031147008.0,1323.7891251051121,19.0,-0.009448377415537834,81920.0,62.94542908668518,6.770625726737478e-15,0.0,2.10152006149292,-0.02101520448923111,0.13391177356243134,-0.02101520076394081,-3.725290298461914e-09,0.0,-0.055872052907943726,0.5145546793937683,0.052692535854628075,-0.2671939432621002,0.11247583478689194,-0.32306599617004395,0.5286717414855957,3.0941483974456787,0.9990065097808838,,,,,,,
4022364000.0,72.62,-1.2200000286102295,12031147008.0,1296.413674717824,20.0,-0.008616764098405838,86016.0,66.10491442680359,6.024694632067451e-15,0.0,2.2003116607666016,-0.022003117948770523,0.12421011179685593,-0.022003116086125374,-2.7939677238464355e-09,0.0,-0.02714855968952179,0.4977385401725769,0.08994058904400659,-0.3012677729129791,0.11219902336597443,-0.3284163475036621,0.5217546820640564,3.159485340118408,0.9989376068115234,,,,,,,
4071732000.0,69.86,-1.2999999523162842,12031147008.0,1295.1528110269455,21.0,-0.009905673563480377,90112.0,69.26747560501099,5.263151026113633e-15,0.0,2.332552909851074,-0.02332552894949913,0.1653800755739212,-0.02332552894949913,9.313225746154785e-10,0.0,-0.059171564877033234,0.572135329246521,0.02332183796861509,-0.32217419147491455,0.08080087602138519,-0.3813457489013672,0.5789259672164917,3.1625611782073975,0.9988992214202881,,,,,,,
4121364000.0,69.48,-1.5499999523162842,12031147008.0,1315.9610736056795,22.0,-0.01278943195939064,94208.0,72.38002967834473,4.9873299934333204e-15,0.0,2.387587547302246,-0.023875879123806953,0.1359861046075821,-0.023875875398516655,-3.725290298461914e-09,0.0,-0.06763897836208344,0.5171677470207214,0.0786659565787784,-0.38159430027008057,0.08923158794641495,-0.4492332935333252,0.5387941598892212,3.1125540733337402,0.9990360736846924,,,,,,,
4170732000.0,72.91,-1.3899999856948853,12031147008.0,1315.3155563279754,23.0,-0.006309158634394407,98304.0,75.49411129951477,5.153863447127094e-15,0.0,2.4368624687194824,-0.02436862885951996,0.11860664188861847,-0.02436862327158451,-5.587935447692871e-09,0.0,0.036586955189704895,0.48572859168052673,0.05682330706572314,-0.4932525157928467,0.11188666522502899,-0.4566655457019806,0.5001463890075684,3.114081621170044,0.9993250370025635,,,,,,,
4220364000.0,75.54,-1.2200000286102295,12031147008.0,1299.1914010116377,24.0,-0.010439986363053322,102400.0,78.6468415260315,4.973452205625506e-15,0.0,2.4777274131774902,-0.024777261540293694,0.16935290396213531,-0.02477727271616459,1.1408701539039612e-08,0.0,-0.01603260450065136,0.5818344950675964,0.04403720459402638,-0.5802587866783142,0.12600839138031006,-0.5962913632392883,0.5950850248336792,3.1527302265167236,0.999164342880249,,,,,,,
4269996000.0,74.1,-1.350000023841858,12031147008.0,1318.3947772137594,25.0,-0.009425381198525429,106496.0,81.75364995002747,4.3923198411732756e-15,0.0,2.5005950927734375,-0.025005949661135674,0.16576452553272247,-0.025005949661135674,0.0,0.0,0.05960657075047493,0.5727618932723999,0.1281253895604344,-0.693203866481781,0.1572345793247223,-0.6335973143577576,0.6134046912193298,3.1068084239959717,0.9990875720977783,,,,,,,
4319628000.0,71.14,-1.7100000381469727,12031147008.0,1315.7881212684906,26.0,-0.01556064747273922,110592.0,84.86661314964294,4.7444687067965674e-15,0.0,2.5342354774475098,-0.025342360138893127,0.20951788127422333,-0.02534235455095768,-4.6566128730773926e-09,0.0,-0.013220004737377167,0.6472737789154053,0.09342492082264064,-0.7375074625015259,0.1403663009405136,-0.7507274150848389,0.6798076629638672,3.1129631996154785,0.999060869216919,,,,,,,
4369116000.0,70.51,-1.6100000143051147,12031147008.0,1319.324821857155,27.0,-0.006325132213532925,114688.0,87.97123146057129,4.560588018343026e-15,0.0,2.5453248023986816,-0.02545325830578804,0.13435739278793335,-0.025453247129917145,-1.1641532182693481e-08,0.0,0.11674416065216064,0.505121648311615,0.03730589295846143,-0.736535906791687,0.13947610557079315,-0.6197916865348816,0.5148156881332397,3.1046183109283447,0.9991047382354736,,,,,,,
4418620000.0,73.19,-1.1699999570846558,12031147008.0,1323.325984427616,28.0,-0.010071237571537495,118784.0,91.06646275520325,4.690692279041286e-15,0.0,2.579909324645996,-0.0257990974932909,0.16013050079345703,-0.025799091905355453,-5.587935447692871e-09,0.0,0.025545712560415268,0.5654082298278809,0.09107368953944328,-0.6083033680915833,0.1206866055727005,-0.5827577114105225,0.5930588841438293,3.095231294631958,0.9988040924072266,,,,,,,
4469484000.0,73.29,-1.5800000429153442,12031147008.0,1306.362931981316,29.0,-0.01157376728951931,122880.0,94.20188546180725,4.31946145518225e-15,0.0,2.578616142272949,-0.025786161422729492,0.18185722827911377,-0.025786161422729492,-9.313225746154785e-10,0.0,-0.0050362274050712585,0.6031400561332703,0.07824802776226703,-0.5396426916122437,0.12463566660881042,-0.5446788668632507,0.6282191276550293,3.135422706604004,0.9987878799438477,,,,,,,
4518684000.0,74.41,-2.049999952316284,12031147008.0,1296.0811416343813,30.0,-0.01598173752427101,126976.0,97.3621814250946,4.98212582300539e-15,0.0,2.596780776977539,-0.025967804715037346,0.2660282254219055,-0.025967806577682495,1.862645149230957e-09,0.0,-0.12844541668891907,0.7181114554405212,0.08964682708093719,-0.4592767655849457,0.11158446222543716,-0.5877221822738647,0.7526392936706543,3.1602959632873535,0.9985597133636475,,,,,,,
4567860000.0,74.98,-1.590000033378601,12031147008.0,1321.8153343748927,31.0,-0.008448110893368721,131072.0,100.46095013618469,4.498137973207861e-15,0.0,2.595332145690918,-0.02595331333577633,0.1485448181629181,-0.025953320786356926,7.450580596923828e-09,0.0,0.015499226748943329,0.5449053645133972,0.12629323113133228,-0.5069746971130371,0.13963396847248077,-0.4914754629135132,0.5829593539237976,3.098768711090088,0.9990682601928711,,,,,,,
,,,,,,,,,,,,,,,,,,,,,,,,,,0.003137858584523201,0.20390719175338745,0.1987646073102951,0.003137858584523201,0.20390719175338745,0.1987646073102951,
,,,,,,,,,,,,,,,,,,,,,,,,,,0.0024781711399555206,0.17912635207176208,0.177406907081604,0.0024781711399555206,0.17912635207176208,0.177406907081604,
,,,,,,,,,,,,,,,,,,,,,,,,,,0.001204430009238422,0.14930257201194763,0.14931821823120117,0.001204430009238422,0.14930257201194763,0.14931821823120117,
,,,,,,,,,,,,,,,,,,,,,,,,,,0.001475208206102252,0.14000070095062256,0.14129069447517395,0.001475208206102252,0.14000070095062256,0.14129069447517395,
,,,,,,,,,,,,,,,,,,,,,,,,,,0.00115180981811136,0.13040851056575775,0.13428866863250732,0.00115180981811136,0.13040851056575775,0.13428866863250732,
,,,,,,,,,,,,,,,,,,,,,,,,,,0.0011905765859410167,0.12569671869277954,0.12763555347919464,0.0011905765859410167,0.12569671869277954,0.12763555347919464,
,,,,,,,,,,,,,,,,,,,,,,,,,,,,,,,,-2.14
4586328000.0,71.29,-1.2300000190734863,11990518784.0,16.127092989102874,32.0,-0.010379444807767868,135168.0,354.44348764419556,4.749672877224498e-15,0.0,2.616365909576416,-0.02616366557776928,0.1307949423789978,-0.026163658127188683,-7.450580596923828e-09,0.0,0.009467190131545067,0.5114334225654602,0.49319113310535245,-0.5010600686073303,0.3601367175579071,-0.4915928840637207,0.7184010744094849,253.98253750801086,0.9989666938781738,,,,,,,
4586328000.0,72.89,-1.4299999475479126,12041169408.0,1293.463328943706,33.0,-0.013903218321502209,139264.0,357.61017966270447,4.187622471008012e-15,0.0,2.628310441970825,-0.026283111423254013,0.16006359457969666,-0.026283103972673416,-7.450580596923828e-09,0.0,-0.04126130789518356,0.5643602013587952,0.45454177852456257,-0.5100600719451904,0.369981586933136,-0.5513213872909546,0.764144778251648,3.166692018508911,0.9990718364715576,,,,,,,
4586328000.0,74.18,-1.690000057220459,12041169408.0,1224.471773893222,34.0,-0.006764468736946583,143360.0,360.95529556274414,4.201500258815827e-15,0.0,2.6157782077789307,-0.026157788932323456,0.08922000974416733,-0.02615778148174286,-6.51925802230835e-09,0.0,0.08781050145626068,0.4132445156574249,0.5561111371704333,-0.4917706251144409,0.3791666030883789,-0.40396010875701904,0.620254635810852,3.345115900039673,1.0000262260437012,,,,,,,
4586328000.0,72.89,-1.0700000524520874,12041169408.0,1247.5164165478866,35.0,-0.00817188061773777,147456.0,364.2386190891266,4.506811590587745e-15,0.0,2.595076084136963,-0.025950763374567032,0.1420266032218933,-0.025950759649276733,-3.725290298461914e-09,0.0,0.036767277866601944,0.5317615866661072,0.5510209513494415,-0.5790669918060303,0.4748367667198181,-0.542299747467041,0.7936041355133057,3.2833235263824463,0.9998505115509033,,,,,,,
4586328000.0,73.89,-1.3799999952316284,12041169408.0,1256.9154973959044,36.0,-0.010244565084576607,151552.0,367.49739027023315,4.5814047000547475e-15,0.0,2.5818607807159424,-0.025818610563874245,0.12374020367860794,-0.025818606838583946,-3.725290298461914e-09,0.0,0.03019600734114647,0.4966173768043518,0.5751635892677776,-0.6353024244308472,0.5131491422653198,-0.6051064133644104,0.7619228959083557,3.2587711811065674,0.9991137981414795,,,,,,,
4586328000.0,73.97,-1.6699999570846558,12041169408.0,1290.0044605360001,37.0,-0.010861847549676895,155648.0,370.6725730895996,4.289971156090644e-15,0.0,2.589191436767578,-0.025891905650496483,0.1379425972700119,-0.02589191310107708,7.450580596923828e-09,0.0,0.035630203783512115,0.5241018533706665,0.6499617779012857,-0.6484615802764893,0.6227147579193115,-0.6128313541412354,0.885845422744751,3.175182819366455,0.9995324611663818,,,,,,,
4586328000.0,73.82,-1.5499999523162842,12041169408.0,1258.6447636389264,38.0,-0.011385448276996613,159744.0,373.92686700820923,4.532832442727397e-15,0.0,2.577286720275879,-0.025772863999009132,0.13075286149978638,-0.02577286586165428,1.862645149230957e-09,0.0,0.004272695165127516,0.5114209055900574,0.6377887653550276,-0.6216226816177368,0.6103559136390686,-0.6173499822616577,0.8497623801231384,3.254293918609619,0.9992151260375977,,,,,,,
4586328000.0,71.62,-1.7699999809265137,12041169408.0,1245.1873962592633,39.0,-0.012148614041507244,163840.0,377.2163317203522,4.8971243726825264e-15,0.0,2.545820713043213,-0.025458205491304398,0.14181864261627197,-0.025458207353949547,2.7939677238464355e-09,0.0,0.047815509140491486,0.5304900407791138,0.6669152490996667,-0.7030487060546875,0.7231886386871338,-0.6552331447601318,0.9191784262657166,3.2894647121429443,0.9989326000213623,,,,,,,
4586328000.0,72.83,-1.309999942779541,12041169408.0,1326.1662060172432,40.0,-0.007051222026348114,167936.0,380.3049340248108,4.78089789979208e-15,0.0,2.5128607749938965,-0.02512858808040619,0.10629548877477646,-0.02512860670685768,1.862645149230957e-08,0.0,0.13045337796211243,0.4422902464866638,0.65414120271665,-0.5762227773666382,0.7094988226890564,-0.44576939940452576,0.7520694136619568,3.088602304458618,0.999091386795044,,,,,,,
4586328000.0,77.35,-1.2000000476837158,12041169408.0,1320.7363633316513,41.0,-0.010132204741239548,172032.0,383.4062342643738,4.891920202254596e-15,0.0,2.4585695266723633,-0.024585697799921036,0.13024358451366425,-0.024585694074630737,-3.725290298461914e-09,0.0,0.035348210483789444,0.5092160105705261,0.6596752728179758,-0.603326678276062,0.7548748254776001,-0.5679785013198853,0.8728815913200378,3.1013002395629883,0.9989962577819824,,,,,,,
4586328000.0,74.89,-1.600000023841858,12041169408.0,1328.3164021186112,42.0,-0.011203207075595856,176128.0,386.48983693122864,4.647324192141866e-15,0.0,2.4085988998413086,-0.02408599480986595,0.0825858786702156,-0.024085989221930504,-5.587935447692871e-09,0.0,0.05384174734354019,0.40288016200065613,0.7319635950488619,-0.4859001636505127,0.6789005398750305,-0.4320584237575531,0.7781781554222107,3.0836026668548584,0.998781681060791,,,,,,,
4586328000.0,72.07,-1.1799999475479126,12041169408.0,1323.0929052414901,43.0,-0.007499018218368292,180224.0,389.585613489151,4.277828091758806e-15,0.0,2.3944196701049805,-0.023944200947880745,0.06844644248485565,-0.023944195359945297,-5.587935447692871e-09,0.0,0.03042449802160263,0.3687823414802551,0.7336818981502758,-0.28853312134742737,0.5934046506881714,-0.25810861587524414,0.7146112322807312,3.0957765579223633,1.0016005039215088,,,,,,,
4586328000.0,71.72,-1.0099999904632568,12041169408.0,1320.2418738417057,44.0,-0.011670352891087532,184320.0,392.6880753040314,4.978656376053436e-15,0.0,2.285518169403076,-0.022855190560221672,0.0725611224770546,-0.022855181246995926,-9.313225746154785e-09,0.0,-0.03245377540588379,0.3796105682849884,0.7381603651442368,-0.251433402299881,0.6024661064147949,-0.28388717770576477,0.741857647895813,3.102461814880371,0.9990873336791992,,,,,,,
4586328000.0,70.42,-1.4199999570846558,12041169408.0,1304.038137713093,45.0,-0.011426830664277077,188416.0,395.8290877342224,4.628242233906121e-15,0.0,2.2759838104248047,-0.022759847342967987,0.09904401749372482,-0.02275983802974224,-9.313225746154785e-09,0.0,-0.037685684859752655,0.44352659583091736,0.6656979150953389,-0.26125362515449524,0.5884257555007935,-0.2989392876625061,0.7670966982841492,3.14101243019104,0.998859167098999,,,,,,,
4586328000.0,73.6,-1.6699999570846558,12041169408.0,1254.8435968707556,46.0,-0.011162951588630676,192512.0,399.09323954582214,4.879777137922758e-15,0.0,2.2567648887634277,-0.022567646577954292,0.08318839967250824,-0.02256764844059944,1.862645149230957e-09,0.0,-0.03989027068018913,0.4059874415397644,0.6663560691376114,-0.15087413787841797,0.5515631437301636,-0.1907644122838974,0.7028634548187256,3.2641518115997314,0.999467134475708,,,,,,,
4586328000.0,71.17,-1.340000033378601,12041169408.0,1322.687683651348,47.0,-0.009633352980017662,196608.0,402.1899645328522,4.8155923693116165e-15,0.0,2.190340518951416,-0.02190341427922249,0.07278348505496979,-0.021903404965996742,-9.313225746154785e-09,0.0,-0.029680941253900528,0.38042259216308594,0.749523399766118,-0.2587062418460846,0.6443954706192017,-0.2883871793746948,0.7601209878921509,3.0967249870300293,0.9992020130157471,,,,,,,
4586328000.0,71.02,-1.3899999856948853,12041169408.0,1264.999744420981,48.0,-0.011085238307714462,200704.0,405.4279098510742,5.745404152435185e-15,0.0,2.1651577949523926,-0.021651579067111015,0.06866825371980667,-0.021651577204465866,-1.862645149230957e-09,0.0,-8.152984082698822e-05,0.37063464522361755,0.7643463757357929,-0.27843794226646423,0.685172975063324,-0.27851948142051697,0.7634997963905334,3.237945318222046,0.9989397525787354,,,,,,,
4586328000.0,72.58,-1.7300000190734863,12041169408.0,1311.7499086234775,49.0,-0.011873386800289154,204800.0,408.5504562854767,5.6395860204006e-15,0.0,2.172478199005127,-0.021724773570895195,0.09010283648967743,-0.021724781021475792,7.450580596923828e-09,0.0,0.015226446092128754,0.42428499460220337,0.7707964121441133,-0.35472798347473145,0.8077821135520935,-0.3395015597343445,0.8862310647964478,3.122546434402466,0.9993791580200195,,,,,,,
4586328000.0,73.36,-1.590000033378601,12041169408.0,1214.5605557780932,50.0,-0.010200808756053448,208896.0,411.92286944389343,5.5198901005582e-15,0.0,2.1566014289855957,-0.02156602218747139,0.1012548878788948,-0.021566014736890793,-7.450580596923828e-09,0.0,0.03555738553404808,0.44865864515304565,0.7507533002954037,-0.485004186630249,0.8804704546928406,-0.44944679737091064,0.8986722230911255,3.372413158416748,0.9990224838256836,,,,,,,
4586328000.0,74.53,-1.159999966621399,12041169408.0,1205.8920688899518,51.0,-0.007468727417290211,212992.0,415.3195250034332,5.715913853343579e-15,0.0,2.15576171875,-0.02155761793255806,0.065172478556633,-0.02155761606991291,-1.862645149230957e-09,0.0,0.032184429466724396,0.35963964462280273,0.7953311461470146,-0.3314327895641327,0.6941801309585571,-0.2992483377456665,0.794953465461731,3.396655559539795,0.9995005130767822,,,,,,,
4586328000.0,72.08,-1.1399999856948853,12041169408.0,1287.9833673449498,52.0,-0.008404305204749107,217088.0,418.49969029426575,5.1573328940790475e-15,0.0,2.1694016456604004,-0.021694008260965347,0.08720040321350098,-0.021694015711545944,7.450580596923828e-09,0.0,0.0035565635189414024,0.4176490902900696,0.7429243009458976,-0.32047295570373535,0.7185254096984863,-0.31691640615463257,0.8237226009368896,3.1801652908325195,0.9995980262756348,,,,,,,
4586328000.0,71.8,-1.1699999570846558,12041169408.0,1288.4953427813712,53.0,-0.009749363176524639,221184.0,421.678591966629,6.428885201970047e-15,0.0,2.0574162006378174,-0.020574161782860756,0.055612388998270035,-0.020574161782860756,0.0,0.0,-0.0017851977609097958,0.3335397243499756,0.7593630298937999,-0.24237419664859772,0.5679873824119568,-0.24415938556194305,0.6799333691596985,3.1789016723632812,0.9986190795898438,,,,,,,
4586328000.0,71.06,-1.0,12041169408.0,1225.9567697805492,54.0,-0.0075340792536735535,225280.0,425.01965594291687,6.9024647109117154e-15,0.0,2.0119833946228027,-0.02011983096599579,0.058915600180625916,-0.020119832828640938,1.862645149230957e-09,0.0,0.001023600809276104,0.34330588579177856,0.6838305711048837,-0.2051832377910614,0.527314305305481,-0.20415961742401123,0.610550045967102,3.341063976287842,0.9992685317993164,,,,,,,
4586328000.0,73.62,-0.9399999976158142,12041169408.0,1235.8427619094823,55.0,-0.008080444298684597,229376.0,428.333993434906,8.765557724110806e-15,0.0,1.8914549350738525,-0.018914546817541122,0.06014944240450859,-0.01891454868018627,9.313225746154785e-10,0.0,-0.016704387962818146,0.3464811146259308,0.6399942236233733,-0.09369376301765442,0.40989241003990173,-0.11039815843105316,0.5774639248847961,3.3143374919891357,0.999701976776123,,,,,,,
4586328000.0,72.61,-0.8799999952316284,12041169408.0,1263.9743012497474,56.0,-0.003993782214820385,233472.0,431.5745656490326,1.0800388361431601e-14,0.0,1.7857568264007568,-0.017857572063803673,0.04920147731900215,-0.017857568338513374,-3.725290298461914e-09,0.0,0.004311844706535339,0.3137011229991913,0.635167607299526,-0.10105366259813309,0.43832892179489136,-0.09674182534217834,0.5193610787391663,3.240572214126587,0.9991047382354736,,,,,,,
4586328000.0,69.84,-0.5400000214576721,12041169408.0,1250.9085490784746,57.0,-0.004813176579773426,237568.0,434.84898567199707,1.050201592356359e-14,0.0,1.7438831329345703,-0.017438827082514763,0.0436062216758728,-0.01743883080780506,3.725290298461914e-09,0.0,0.00967344269156456,0.2951951026916504,0.7002983246970511,-0.0627896785736084,0.4443690776824951,-0.05311623215675354,0.5392181873321533,3.2744200229644775,0.9992797374725342,,,,,,,
4586328000.0,70.71,-0.9100000262260437,12041169408.0,1207.1478016884178,58.0,-0.008844779804348946,241664.0,438.2421078681946,1.2391129788902333e-14,0.0,1.6383230686187744,-0.016383232548832893,0.051396723836660385,-0.016383230686187744,-1.862645149230957e-09,0.0,-0.037630386650562286,0.31843703985214233,0.7453192250342023,-0.1440858542919159,0.48525670170783997,-0.18171623349189758,0.630994439125061,3.3931221961975098,0.9987649917602539,,,,,,,
4586328000.0,68.39,-1.0700000524520874,12041169408.0,1246.914837318108,59.0,-0.0076539479196071625,245760.0,441.5270154476166,1.7664689155871827e-14,0.0,1.5266673564910889,-0.01526666060090065,0.058728769421577454,-0.015266673639416695,1.3504177331924438e-08,0.0,-0.03415121138095856,0.3410566449165344,0.7354511043516125,-0.11188094317913055,0.5134240984916687,-0.1460321694612503,0.6630915999412537,3.284907579421997,0.998624324798584,,,,,,,
4586328000.0,69.59,-1.0700000524520874,12041169408.0,1224.3937571977333,60.0,-0.008214442990720272,249856.0,444.87234449386597,1.721192632864188e-14,0.0,1.5092586278915405,-0.015092583373188972,0.03797997161746025,-0.015092586167156696,2.7939677238464355e-09,0.0,-0.05035407096147537,0.27100247144699097,0.8394546896581606,-0.12722507119178772,0.5371310710906982,-0.1775791496038437,0.6763545274734497,3.3453290462493896,0.9990329742431641,,,,,,,
4586328000.0,72.58,-1.309999942779541,12041169408.0,1236.4743704548605,61.0,-0.008098012767732143,253952.0,448.1849889755249,1.9003895679325922e-14,0.0,1.470531940460205,-0.014705321751534939,0.048979055136442184,-0.014705318957567215,-2.7939677238464355e-09,0.0,-0.028460394591093063,0.3117239773273468,0.8128055561353178,-0.22820067405700684,0.5858842134475708,-0.256661057472229,0.7204830050468445,3.3126444816589355,0.9993691444396973,,,,,,,
4586328000.0,72.9,-0.8299999833106995,12041169408.0,1242.989441599744,62.0,-0.005412934347987175,258048.0,451.4802703857422,1.732121390762842e-14,0.0,1.5352833271026611,-0.015352810733020306,0.046125732362270355,-0.015352833084762096,2.2351741790771484e-08,0.0,0.002076379954814911,0.30375924706459045,0.7908033558219573,-0.2178400158882141,0.5797340273857117,-0.215763658285141,0.6641285419464111,3.295281410217285,0.9995932579040527,,,,,,,
4632644000.0,72.08,-1.0099999904632568,12041169408.0,1251.3604776708028,63.0,-0.01003764383494854,262144.0,454.7535078525543,1.8726339923169633e-14,0.0,1.5031981468200684,-0.015031985007226467,0.0459904782474041,-0.015031981281936169,-3.725290298461914e-09,0.0,0.007356537040323019,0.303231418132782,0.8057197120621564,-0.2541748881340027,0.6036691665649414,-0.24681834876537323,0.6879546642303467,3.273237466812134,0.9998304843902588,,,,,,,
,,,,,,,,,,,,,,,,,,,,,,,,,,0.005459001287817955,0.1218232661485672,0.09308738261461258,0.005459001287817955,0.1218232661485672,0.09308738261461258,
,,,,,,,,,,,,,,,,,,,,,,,,,,0.0016014594584703445,0.07957606762647629,0.07666178792715073,0.0016014594584703445,0.07957606762647629,0.07666178792715073,
,,,,,,,,,,,,,,,,,,,,,,,,,,0.0010647381423041224,0.07178416848182678,0.07094407826662064,0.0010647381423041224,0.07178416848182678,0.07094407826662064,
,,,,,,,,,,,,,,,,,,,,,,,,,,0.0011537909740582108,0.06663090735673904,0.06652112305164337,0.0011537909740582108,0.06663090735673904,0.06652112305164337,
,,,,,,,,,,,,,,,,,,,,,,,,,,0.0012777139199897647,0.06292515248060226,0.06188639625906944,0.0012777139199897647,0.06292515248060226,0.06188639625906944,
,,,,,,,,,,,,,,,,,,,,,,,,,,0.0013888685498386621,0.061711154878139496,0.061952222138643265,0.0013888685498386621,0.061711154878139496,0.061952222138643265,
,,,,,,,,,,,,,,,,,,,,,,,,,,,,,,,,-1.33
4635096000.0,68.37,-1.2999999523162842,11990521856.0,16.11900609830648,64.0,-0.009247876703739166,266240.0,708.863468170166,1.0129050376228577e-14,0.0,1.5384522676467896,-0.015384518541395664,0.0319688655436039,-0.015384522266685963,3.725290298461914e-09,0.0,0.017114687711000443,0.25231003761291504,0.8911744317338982,-0.2789841592311859,0.6926928162574768,-0.2618694603443146,0.764837384223938,254.1099603176117,0.9990098476409912,,,,,,,
4635096000.0,69.13,-1.100000023841858,12041169408.0,1330.7336979426839,65.0,-0.008572153747081757,270336.0,711.9414694309235,1.0077008671949272e-14,0.0,1.4917845726013184,-0.014917860738933086,0.04679827392101288,-0.014917845837771893,-1.4901161193847656e-08,0.0,-0.0004209207836538553,0.3059726059436798,0.8538100132898043,-0.29881349205970764,0.6715197563171387,-0.29923439025878906,0.8002463579177856,3.0780012607574463,0.9992311000823975,,,,,,,
4635096000.0,70.82,-1.0499999523162842,12041169408.0,1309.8177215417631,66.0,-0.007096572313457727,274432.0,715.0686221122742,1.0019762797242038e-14,0.0,1.5068027973175049,-0.015068034641444683,0.030237402766942978,-0.015068027190864086,-7.450580596923828e-09,0.0,0.024273134768009186,0.24474526941776276,0.9070032545416372,-0.25565117597579956,0.7384728789329529,-0.23137804865837097,0.8025653958320618,3.127152681350708,0.998938798904419,,,,,,,
4635096000.0,71.69,-0.8199999928474426,12041169408.0,1275.0259466787213,67.0,-0.005330780521035194,278528.0,718.2811057567596,1.0595690991266338e-14,0.0,1.50547194480896,-0.015054712072014809,0.026583949103951454,-0.015054719522595406,7.450580596923828e-09,0.0,0.04211049526929855,0.22673144936561584,0.8972802648679444,-0.24868318438529968,0.682936429977417,-0.20657269656658173,0.707432210445404,3.2124836444854736,0.9991965293884277,,,,,,,
4635096000.0,73.11,-0.5899999737739563,12041169408.0,1263.0572057521151,68.0,-0.004938245750963688,282624.0,721.5240309238434,1.0765693891912065e-14,0.0,1.5273467302322388,-0.015273465774953365,0.0334274023771286,-0.01527346670627594,9.313225746154785e-10,0.0,0.03612317889928818,0.2560584247112274,0.8531309077130784,-0.24185842275619507,0.631022036075592,-0.20573526620864868,0.6681499481201172,3.2429251670837402,0.9994509220123291,,,,,,,
4635096000.0,71.04,-0.9599999785423279,12041169408.0,1288.2116774353385,69.0,-0.010997094213962555,286720.0,724.7036325931549,1.1844691893969639e-14,0.0,1.5113117694854736,-0.015113113448023796,0.03398074582219124,-0.015113117173314095,3.725290298461914e-09,0.0,-0.0032195006497204304,0.26070618629455566,0.9177980071676346,-0.3824447989463806,0.8490450978279114,-0.38566428422927856,0.9093062877655029,3.1796016693115234,0.999140739440918,,,,,,,
4635096000.0,71.8,-1.2000000476837158,12041169408.0,1287.7571652276233,70.0,-0.00895629171282053,290816.0,727.8843564987183,1.0305992170778211e-14,0.0,1.5456039905548096,-0.015456043183803558,0.02979404106736183,-0.01545603945851326,-3.725290298461914e-09,0.0,0.03276308253407478,0.24192757904529572,0.9053365670452438,-0.2990896701812744,0.7557611465454102,-0.2663266062736511,0.7863107919692993,3.1807239055633545,0.9989845752716064,,,,,,,
4635096000.0,71.77,-1.149999976158142,12041169408.0,1308.8221519607418,71.0,-0.009790392592549324,294912.0,731.0138878822327,9.54618328830037e-15,0.0,1.561765432357788,-0.015617653727531433,0.043644048273563385,-0.015617653727531433,0.0,0.0,0.03547585755586624,0.29334375262260437,0.8936024027453784,-0.3997145891189575,0.8710346221923828,-0.3642387390136719,0.89931321144104,3.1295313835144043,0.9996862411499023,,,,,,,
4635096000.0,72.58,-1.3799999952316284,12041169408.0,1295.0292121767745,72.0,-0.008973900228738785,299008.0,734.1767508983612,9.183626081821217e-15,0.0,1.5774966478347778,-0.015774967148900032,0.032156407833099365,-0.015774965286254883,-1.862645149230957e-09,0.0,0.020233366638422012,0.2528221011161804,0.9349851588929524,-0.43999913334846497,0.9586911201477051,-0.41976577043533325,0.9915367960929871,3.16286301612854,0.9994287490844727,,,,,,,
4635096000.0,72.54,-0.8600000143051147,12041169408.0,1268.027958236539,73.0,-0.006912475451827049,303104.0,737.4069635868073,9.003214840319629e-15,0.0,1.602762222290039,-0.016027627512812614,0.03321585804224014,-0.016027621924877167,-5.587935447692871e-09,0.0,0.04654625058174133,0.2535367012023926,0.9167575505254314,-0.38828545808792114,0.8549454808235168,-0.3417391777038574,0.8787562847137451,3.230212688446045,0.9990544319152832,,,,,,,
4635096000.0,71.69,-0.7599999904632568,12041169408.0,1270.8892308036009,74.0,-0.005684663541615009,307200.0,740.629903793335,9.223524721768683e-15,0.0,1.6315943002700806,-0.01631593145430088,0.02514985203742981,-0.016315942630171776,1.1175870895385742e-08,0.0,0.039349183440208435,0.22082401812076569,0.9328449794557512,-0.2920057475566864,0.8766946792602539,-0.25265657901763916,0.8521324396133423,3.22294020652771,0.9991528987884521,,,,,,,
4635096000.0,68.82,-0.7900000214576721,12041169408.0,1323.0449135582255,75.0,-0.009173460304737091,311296.0,743.7257926464081,9.468120731881413e-15,0.0,1.6522138118743896,-0.016522139310836792,0.021666280925273895,-0.016522137448191643,-9.313225746154785e-10,0.0,-0.0048291971907019615,0.20813412964344025,0.9214660138038643,-0.2188423126935959,0.6975498795509338,-0.22367151081562042,0.7427017688751221,3.09588885307312,0.9994122982025146,,,,,,,
4635096000.0,68.24,-1.2200000286102295,12041169408.0,1336.8935216899397,76.0,-0.009734153747558594,315392.0,746.7896118164062,8.328407408164651e-15,0.0,1.6590768098831177,-0.01659076102077961,0.025409512221813202,-0.016590768471360207,7.450580596923828e-09,0.0,-0.026918182149529457,0.22384518384933472,0.9284878118983361,-0.24860936403274536,0.7576487064361572,-0.2755275368690491,0.8370621800422668,3.063819169998169,0.999767541885376,,,,,,,
4635096000.0,71.31,-1.4299999475479126,12041169408.0,1323.9946953494293,77.0,-0.010998303070664406,319488.0,749.883279800415,8.715250743307479e-15,0.0,1.685767412185669,-0.016857678070664406,0.030735300853848457,-0.016857674345374107,-3.725290298461914e-09,0.0,-0.02096407860517502,0.2470749169588089,0.9215006613680344,-0.30563437938690186,0.8463941812515259,-0.32659846544265747,0.881851851940155,3.093667984008789,0.9989457130432129,,,,,,,
4635096000.0,73.88,-1.0099999904632568,12041169408.0,1306.6311949849319,78.0,-0.0043256343342363834,323584.0,753.0180587768555,7.880848751362635e-15,0.0,1.7488455772399902,-0.017488455399870872,0.030269479379057884,-0.017488455399870872,0.0,0.0,-0.009613508358597755,0.24588879942893982,0.8711370030056205,-0.10081988573074341,0.6261445879936218,-0.11043339967727661,0.6849749088287354,3.1347789764404297,0.9991776943206787,,,,,,,
4635096000.0,68.53,-0.6399999856948853,12041169408.0,1278.3728900733813,79.0,-0.006011577323079109,327680.0,756.222131729126,8.7360674250192e-15,0.0,1.7126761674880981,-0.017126766964793205,0.01971711777150631,-0.017126761376857758,-5.587935447692871e-09,0.0,-0.02345731481909752,0.19721432030200958,0.9187539589028217,-0.1355985403060913,0.6076754331588745,-0.15905585885047913,0.6918904185295105,3.204072952270508,0.9991731643676758,,,,,,,
4635096000.0,70.75,-1.059999942779541,12041169408.0,1334.5453487866264,80.0,-0.011470656841993332,331776.0,759.2913417816162,8.640657633840476e-15,0.0,1.7826297283172607,-0.01782628893852234,0.027349937707185745,-0.017826296389102936,6.51925802230835e-09,0.0,-0.019344188272953033,0.23310713469982147,0.9125611697556995,-0.2194651961326599,0.7019437551498413,-0.23880939185619354,0.7883215546607971,3.0692100524902344,0.9990088939666748,,,,,,,
4635096000.0,72.26,-1.1200000047683716,12041169408.0,1337.047197035873,81.0,-0.007434400729835033,335872.0,762.354808807373,8.347489366400396e-15,0.0,1.836489200592041,-0.01836489886045456,0.02256588637828827,-0.018364891409873962,-8.381903171539307e-09,0.0,0.00537266256287694,0.2124003767967224,0.9306295243827791,-0.25864073634147644,0.7545249462127686,-0.2532680630683899,0.8064324259757996,3.063467025756836,0.9991724491119385,,,,,,,
4635096000.0,70.09,-0.9700000286102295,12041169408.0,1282.5989552786143,82.0,-0.006741680204868317,339968.0,765.5483245849609,7.66574304034151e-15,0.0,1.8548299074172974,-0.018548285588622093,0.02552008256316185,-0.018548298627138138,1.30385160446167e-08,0.0,0.01010536216199398,0.22572214901447296,0.9150848680470258,-0.21892312169075012,0.7478398084640503,-0.2088177651166916,0.7746073603630066,3.1935157775878906,0.9999682903289795,,,,,,,
4635096000.0,71.99,-0.6499999761581421,12041169408.0,1292.6646878262488,83.0,-0.005350013729184866,344064.0,768.71697306633,7.369105325949477e-15,0.0,1.906010389328003,-0.019060099497437477,0.02271989732980728,-0.019060103222727776,3.725290298461914e-09,0.0,0.01395871676504612,0.21273458003997803,0.900766203232357,-0.14127035439014435,0.6337061524391174,-0.12731163203716278,0.6753179430961609,3.1686484813690186,0.99930739402771,,,,,,,
4635096000.0,73.43,-0.7099999785423279,12041169408.0,1297.7026774348105,84.0,-0.0045175496488809586,348160.0,771.8733201026917,7.681355551625302e-15,0.0,2.049844741821289,-0.020498454570770264,0.027630247175693512,-0.020498447120189667,-7.450580596923828e-09,0.0,0.020669709891080856,0.2341936081647873,0.8831480901674584,-0.20763365924358368,0.6979795098304749,-0.18696394562721252,0.68510502576828,3.1563470363616943,0.9991207122802734,,,,,,,
4635096000.0,73.67,-1.0299999713897705,12041169408.0,1299.744481301921,85.0,-0.011453207582235336,352256.0,775.0247087478638,7.183489914019958e-15,0.0,2.175408124923706,-0.021754080429673195,0.06281357258558273,-0.021754080429673195,0.0,0.0,-0.02334972470998764,0.35371243953704834,0.8645052542929542,-0.4083799123764038,0.8859142661094666,-0.43172967433929443,0.9609241485595703,3.151388645172119,0.9988985061645508,,,,,,,
4635096000.0,73.08,-0.699999988079071,12041169408.0,1298.727342138036,86.0,-0.0014172398950904608,356352.0,778.1785655021667,7.0915495697931874e-15,0.0,2.330601453781128,-0.02330600470304489,0.02064090594649315,-0.023306014016270638,9.313225746154785e-09,0.0,0.027587205171585083,0.2013222724199295,0.9164283893533299,-0.136917382478714,0.6629255414009094,-0.10933016985654831,0.696405827999115,3.1538567543029785,0.9991557598114014,,,,,,,
4635096000.0,71.75,-0.7400000095367432,12041169408.0,1299.7020031450304,87.0,-0.009922506287693977,360448.0,781.330057144165,7.28063442867466e-15,0.0,2.340698719024658,-0.023406988009810448,0.05650505796074867,-0.0234069861471653,-2.3283064365386963e-09,0.0,-0.0066060214303433895,0.33614590764045715,0.850608642118892,-0.28800565004348755,0.8145928382873535,-0.2946116328239441,0.8696912527084351,3.151491641998291,0.9989426136016846,,,,,,,
4635096000.0,72.47,-1.3799999952316284,12041169408.0,1286.4103848103578,88.0,-0.01120845414698124,364544.0,784.5141110420227,7.245939959155123e-15,0.0,2.5087010860443115,-0.025087017565965652,0.06668439507484436,-0.025087010115385056,-8.381903171539307e-09,0.0,-0.046945806592702866,0.362211138010025,0.8622261433879067,-0.43065035343170166,0.9248210191726685,-0.47759613394737244,0.9758395552635193,3.184053897857666,0.9990859031677246,,,,,,,
4635096000.0,72.14,-1.190000057220459,12041169408.0,1286.1411163580278,89.0,-0.008661720901727676,368640.0,787.6988315582275,6.774095173689432e-15,0.0,2.584043025970459,-0.025840431451797485,0.09171919524669647,-0.025840429589152336,-1.862645149230957e-09,0.0,-0.0049428632482886314,0.42832085490226746,0.719997208208723,-0.209707111120224,0.7248982191085815,-0.2146499752998352,0.8094462752342224,3.184720516204834,1.0002102851867676,,,,,,,
4635096000.0,72.18,-0.7799999713897705,12041169408.0,1262.2788733245013,90.0,-0.007815683260560036,372736.0,790.9437563419342,7.480127628411992e-15,0.0,2.5792384147644043,-0.025792371481657028,0.08574791997671127,-0.025792382657527924,1.1175870895385742e-08,0.0,-0.03377147763967514,0.4127916395664215,0.7603571022579888,-0.23777160048484802,0.729876697063446,-0.27154308557510376,0.8432349562644958,3.244924783706665,0.999222993850708,,,,,,,
4635096000.0,73.4,-1.0399999618530273,12041169408.0,1301.969906380982,91.0,-0.008242279291152954,376832.0,794.0897583961487,7.53563877964325e-15,0.0,2.539463520050049,-0.025394637137651443,0.07395949214696884,-0.025394635275006294,-1.862645149230957e-09,0.0,-0.01569395884871483,0.3843289613723755,0.7865139320588108,-0.181439608335495,0.7165213227272034,-0.19713357090950012,0.8317989110946655,3.1460020542144775,0.9990346431732178,,,,,,,
4635096000.0,72.46,-1.0199999809265137,12041169408.0,1337.1333622451061,92.0,-0.008244541473686695,380928.0,797.153028011322,8.534839501805891e-15,0.0,2.4911208152770996,-0.024911196902394295,0.03921698033809662,-0.02491120807826519,1.1175870895385742e-08,0.0,0.021210364997386932,0.2792903780937195,0.9031575667854632,-0.29347649216651917,0.8479968309402466,-0.27226611971855164,0.8974766135215759,3.06326961517334,0.999086856842041,,,,,,,
4635096000.0,70.85,-1.0499999523162842,12041169408.0,1340.279632517179,93.0,-0.008393820375204086,385024.0,800.2091066837311,9.429956815409923e-15,0.0,2.442446231842041,-0.02442445047199726,0.035590603947639465,-0.024424461647868156,1.1175870895385742e-08,0.0,0.027385935187339783,0.26542121171951294,0.909560276178468,-0.3025323152542114,0.8448344469070435,-0.27514636516571045,0.8825839161872864,3.0560786724090576,0.9992990493774414,,,,,,,
4635096000.0,71.28,-0.9800000190734863,12041169408.0,1345.2511789438868,94.0,-0.008402101695537567,389120.0,803.2538912296295,1.0097825353660994e-14,0.0,2.4168381690979004,-0.024168379604816437,0.04380897060036659,-0.024168381467461586,1.862645149230957e-09,0.0,0.009507178328931332,0.29588669538497925,0.8825650959938871,-0.26050612330436707,0.8237268924713135,-0.25099894404411316,0.8634293675422668,3.0447845458984375,0.9993412494659424,,,,,,,
4635096000.0,73.12,-1.0700000524520874,12041169408.0,1343.4126949087322,95.0,-0.00613150279968977,393216.0,806.3028426170349,9.684961166378514e-15,0.0,2.4588801860809326,-0.02458880841732025,0.04351630434393883,-0.024588800966739655,-7.450580596923828e-09,0.0,0.040007609874010086,0.29232320189476013,0.8890116637613772,-0.2938932776451111,0.8598461747169495,-0.2538856267929077,0.8774545788764954,3.0489513874053955,0.998725414276123,,,,,,,
,,,,,,,,,,,,,,,,,,,,,,,,,,0.01004458125680685,0.05111473798751831,0.03610822185873985,0.01004458125680685,0.05111473798751831,0.03610822185873985,
,,,,,,,,,,,,,,,,,,,,,,,,,,0.004201929550617933,0.029859067872166634,0.028275199234485626,0.004201929550617933,0.029859067872166634,0.028275199234485626,
,,,,,,,,,,,,,,,,,,,,,,,,,,0.0031774842645972967,0.02805662527680397,0.026984889060258865,0.0031774842645972967,0.02805662527680397,0.026984889060258865,
,,,,,,,,,,,,,,,,,,,,,,,,,,0.0023765680380165577,0.026432884857058525,0.02490273118019104,0.0023765680380165577,0.026432884857058525,0.02490273118019104,
,,,,,,,,,,,,,,,,,,,,,,,,,,0.00232827034778893,0.026183366775512695,0.024490850046277046,0.00232827034778893,0.026183366775512695,0.024490850046277046,
,,,,,,,,,,,,,,,,,,,,,,,,,,0.002652176422998309,0.025558754801750183,0.02629699744284153,0.002652176422998309,0.025558754801750183,0.02629699744284153,
,,,,,,,,,,,,,,,,,,,,,,,,,,,,,,,,-1.26
4635376000.0,73.33,-0.7099999785423279,11990521856.0,16.12275824208317,96.0,-0.007280644960701466,397312.0,1060.3536655902863,7.289308046054543e-15,0.0,2.4421420097351074,-0.024421412497758865,0.02957797795534134,-0.024421419948339462,7.450580596923828e-09,0.0,0.003999700769782066,0.24321676790714264,0.9135364015774696,-0.29804444313049316,0.7554053068161011,-0.29404473304748535,0.8271358013153076,254.05082297325134,0.9997127056121826,,,,,,,
4635376000.0,71.1,-0.9200000166893005,12041169408.0,1351.6996874937795,97.0,-0.00913633219897747,401408.0,1063.383924484253,7.636252741249905e-15,0.0,2.422823905944824,-0.024228235706686974,0.05336739867925644,-0.024228239431977272,3.725290298461914e-09,0.0,-0.025908147916197777,0.32571378350257874,0.8347982205454909,-0.19169658422470093,0.6337862610816956,-0.21760471165180206,0.8013619780540466,3.030258893966675,0.9986636638641357,,,,,,,
4635376000.0,72.27,-0.9399999976158142,12041169408.0,1288.820223438717,98.0,-0.005431510973721743,405504.0,1066.5620248317719,6.805320196257014e-15,0.0,2.4525012969970703,-0.02452501282095909,0.02785542979836464,-0.02452501282095909,4.656612873077393e-10,0.0,0.012889457866549492,0.23570804297924042,0.8811988789008094,-0.1711747944355011,0.5932446718215942,-0.15828534960746765,0.6838551759719849,3.178100347518921,0.9991054534912109,,,,,,,
4635376000.0,73.51,-0.6700000166893005,12041169408.0,1294.4728214772006,99.0,-0.0032945990096777678,409600.0,1069.7262473106384,7.169612126212144e-15,0.0,2.459818124771118,-0.02459818497300148,0.019720260053873062,-0.02459818124771118,-3.725290298461914e-09,0.0,0.008620386011898518,0.19843342900276184,0.9037806892753102,-0.13727998733520508,0.574684739112854,-0.12865960597991943,0.6397107839584351,3.164222478866577,0.9988963603973389,,,,,,,
4635376000.0,72.72,-0.5799999833106995,12041169408.0,1343.0150905858068,100.0,-0.006309206597507,413696.0,1072.7761013507843,8.146261443187086e-15,0.0,2.4338550567626953,-0.02433854341506958,0.04062461107969284,-0.024338550865650177,6.51925802230835e-09,0.0,-0.008205242455005646,0.2849591374397278,0.900250320900295,-0.28984692692756653,0.7766227722167969,-0.2980521619319916,0.9022499322891235,3.049854040145874,0.9991159439086914,,,,,,,
4635376000.0,73.66,-0.5400000214576721,12041169408.0,1296.50417280555,101.0,-0.0037357937544584274,417792.0,1075.935366153717,8.19309897703846e-15,0.0,2.462614059448242,-0.024626143276691437,0.025452420115470886,-0.02462613955140114,-3.725290298461914e-09,0.0,0.004948838148266077,0.22559426724910736,0.9000526492350875,-0.14932140707969666,0.6456791162490845,-0.14437256753444672,0.7135795950889587,3.1592648029327393,0.9989314079284668,,,,,,,
4635376000.0,71.12,-0.41999998688697815,12041169408.0,1310.0460467153166,102.0,-0.002016472164541483,421888.0,1079.061973810196,7.126244039312724e-15,0.0,2.481161117553711,-0.024811608716845512,0.023489702492952347,-0.02481161057949066,1.862645149230957e-09,0.0,-0.0027869914192706347,0.21675586700439453,0.8973083267747369,-0.0836092010140419,0.6284469962120056,-0.08639619499444962,0.6763994693756104,3.126607656478882,0.9990110397338867,,,,,,,
4635376000.0,71.2,-0.3199999928474426,12041169408.0,1319.3371826837442,103.0,-0.0020217690616846085,425984.0,1082.1665630340576,7.66574304034151e-15,0.0,2.473507881164551,-0.024735070765018463,0.02189917489886284,-0.02473507821559906,7.450580596923828e-09,0.0,-0.00024201534688472748,0.20930597186088562,0.9207669641263074,-0.15171891450881958,0.6914190649986267,-0.15196092426776886,0.7435813546180725,3.1045892238616943,0.9988148212432861,,,,,,,
4635376000.0,71.72,-0.20000000298023224,12041169408.0,1274.6819732553658,104.0,-0.0020254605915397406,430080.0,1085.3799135684967,7.82880704708333e-15,0.0,2.4986681938171387,-0.024986671283841133,0.02319471538066864,-0.02498668059706688,9.313225746154785e-09,0.0,0.011372780427336693,0.21510784327983856,0.9249175363377331,-0.13237328827381134,0.7362903356552124,-0.1210004985332489,0.7850313186645508,3.213350534439087,0.9987020492553711,,,,,,,
4635376000.0,72.73,-0.47999998927116394,12041169408.0,1315.0187524785958,105.0,-0.007097612600773573,434176.0,1088.494698047638,8.31279489688086e-15,0.0,2.464586019515991,-0.024645870551466942,0.03622505068778992,-0.024645859375596046,-1.1175870895385742e-08,0.0,0.017061278223991394,0.2686571180820465,0.9102850840580783,-0.28058892488479614,0.8960219025611877,-0.26352769136428833,0.8969453573226929,3.1147844791412354,0.9987826347351074,,,,,,,
4635376000.0,74.22,-0.75,12041169408.0,1364.907901701095,106.0,-0.0034840544685721397,438272.0,1091.4956331253052,7.757683384568281e-15,0.0,2.4898438453674316,-0.024898435920476913,0.04962107539176941,-0.024898437783122063,9.313225746154785e-10,0.0,0.005914810113608837,0.3150101602077484,0.8428158856888972,-0.16016227006912231,0.7911428213119507,-0.15424744784832,0.7945481538772583,3.0009350776672363,0.9992480278015137,,,,,,,
4635376000.0,73.39,-0.23999999463558197,12041169408.0,1307.5995466446307,107.0,-0.0023269415833055973,442368.0,1094.628090620041,8.278100427361323e-15,0.0,2.4910383224487305,-0.02491038292646408,0.03312847390770912,-0.02491038292646408,-9.313225746154785e-10,0.0,-0.002556642284616828,0.2574229836463928,0.9101476815048337,-0.15455667674541473,0.8142592310905457,-0.15711331367492676,0.8587814569473267,3.1324574947357178,0.9988405704498291,,,,,,,
4635376000.0,73.41,-0.47999998927116394,12041169408.0,1308.8306274184124,108.0,-0.007719040848314762,446464.0,1097.757601737976,9.102094078450307e-15,0.0,2.479321241378784,-0.024793215095996857,0.05690281465649605,-0.024793211370706558,-3.725290298461914e-09,0.0,-0.03828331455588341,0.3352125287055969,0.838038742096843,-0.12121152877807617,0.7751165628433228,-0.15949483215808868,0.8329418301582336,3.1295111179351807,0.9993045330047607,,,,,,,
4635376000.0,76.14,-0.949999988079071,12041169408.0,1279.5284673791118,109.0,-0.006995331030339003,450560.0,1100.958781003952,8.220854552654089e-15,0.0,2.444105625152588,-0.024441050365567207,0.07380686700344086,-0.024441055953502655,5.587935447692871e-09,0.0,-0.028620023280382156,0.38318467140197754,0.858135204666549,-0.3959645926952362,0.9249479174613953,-0.42458462715148926,1.0173509120941162,3.201179265975952,0.999126672744751,,,,,,,
4635376000.0,74.84,-0.6700000166893005,12041169408.0,1295.8922605979224,110.0,-0.003943725023418665,454656.0,1104.1195375919342,9.608633333435534e-15,0.0,2.430203914642334,-0.02430204302072525,0.03601212799549103,-0.024302039295434952,-3.725290298461914e-09,0.0,0.012671376578509808,0.2681067883968353,0.8937139063580382,-0.21999847888946533,0.8118511438369751,-0.20732709765434265,0.8223743438720703,3.1607565879821777,0.99930739402771,,,,,,,
4635376000.0,73.75,-0.6100000143051147,12041169408.0,1286.257053616364,111.0,-0.005412793252617121,458752.0,1107.3039710521698,9.032705139411235e-15,0.0,2.3952252864837646,-0.02395225316286087,0.03535773605108261,-0.02395225316286087,0.0,0.0,-0.018811821937561035,0.2652899920940399,0.9307654299446113,-0.3345034718513489,0.9744221568107605,-0.3533152937889099,1.008229374885559,3.1844334602355957,0.9993841648101807,,,,,,,
4635376000.0,75.07,-0.5799999833106995,12041169408.0,1285.6251410325804,112.0,-0.004834900610148907,462848.0,1110.4899697303772,1.0049253096333643e-14,0.0,2.36399507522583,-0.023639947175979614,0.02583364024758339,-0.023639950901269913,2.7939677238464355e-09,0.0,0.016441497951745987,0.2267366349697113,0.9170490350281356,-0.1837266981601715,0.7876521348953247,-0.16728520393371582,0.7872469425201416,3.1859986782073975,0.9988322257995605,,,,,,,
4635376000.0,71.22,-0.6000000238418579,12041169408.0,1221.7050413210388,113.0,-0.004991621244698763,466944.0,1113.8426611423492,1.0873246747422627e-14,0.0,2.3506784439086914,-0.023506777361035347,0.017911773175001144,-0.023506784811615944,7.450580596923828e-09,0.0,0.010053436271846294,0.18902698159217834,0.9399099426018876,-0.23276163637638092,0.750062882900238,-0.22270821034908295,0.7711209058761597,3.352691411972046,0.9995732307434082,,,,,,,
4635376000.0,71.35,-0.3100000023841858,12041169408.0,1238.5303812446143,114.0,-5.820766091346741e-11,471040.0,1117.1498064994812,1.0939166239509746e-14,0.0,2.341904640197754,-0.023419061675667763,0.018907759338617325,-0.02341904677450657,-1.4901161193847656e-08,0.0,0.020860746502876282,0.19336359202861786,0.932779212105345,-0.16285715997219086,0.7488642930984497,-0.14199641346931458,0.745800793170929,3.307145357131958,0.999218225479126,,,,,,,
4635376000.0,72.12,-0.3499999940395355,12041169408.0,1273.7189654861793,115.0,-0.005156209692358971,475136.0,1120.3655865192413,1.1461318005778764e-14,0.0,2.3077850341796875,-0.02307784929871559,0.020644430071115494,-0.02307784929871559,9.313225746154785e-10,0.0,0.013126140460371971,0.20279695093631744,0.9343767388975133,-0.15504051744937897,0.7532655596733093,-0.14191438257694244,0.791648805141449,3.215780019760132,0.9991135597229004,,,,,,,
4635376000.0,74.04,-0.5199999809265137,12041169408.0,1291.870918102355,116.0,-0.0035428847186267376,479232.0,1123.5361819267273,1.1161210844434777e-14,0.0,2.3797826766967773,-0.02379782684147358,0.019656136631965637,-0.02379782684147358,0.0,0.0,-0.019087383523583412,0.19737643003463745,0.936660871826627,-0.1363668441772461,0.7470567226409912,-0.15545421838760376,0.7842585444450378,3.170595407485962,0.9989042282104492,,,,,,,
4635376000.0,74.73,-0.3700000047683716,12041169408.0,1309.7202631200778,117.0,-0.0035485271364450455,483328.0,1126.6635673046112,1.1554993073481512e-14,0.0,2.3545379638671875,-0.023545382544398308,0.041296735405921936,-0.02354537881910801,-3.725290298461914e-09,0.0,0.024907484650611877,0.28634440898895264,0.8548472582071218,-0.1853136122226715,0.7370089292526245,-0.16040611267089844,0.7515815496444702,3.127385377883911,0.999351978302002,,,,,,,
4635376000.0,69.01,-0.3400000035762787,12041169408.0,1275.6184965793414,118.0,-0.002963600680232048,487424.0,1129.87455868721,1.194183640862434e-14,0.0,2.337070941925049,-0.023370709270238876,0.04999762028455734,-0.023370709270238876,0.0,0.0,0.03582470118999481,0.3142227530479431,0.8169906154227436,-0.2256336659193039,0.7305147051811218,-0.18980896472930908,0.7345154881477356,3.210991382598877,0.9993093013763428,,,,,,,
4635376000.0,70.01,-0.4699999988079071,12041169408.0,1323.6437851754465,119.0,-0.00504266656935215,491520.0,1132.969046831131,1.1308662339892805e-14,0.0,2.3523716926574707,-0.02352372370660305,0.07954416424036026,-0.023523716256022453,-7.450580596923828e-09,0.0,-0.02560729905962944,0.39808449149131775,0.6664022208168097,-0.1001465916633606,0.592147171497345,-0.12575389444828033,0.6892292499542236,3.0944881439208984,0.9991157054901123,,,,,,,
4635376000.0,73.11,-0.38999998569488525,12041169408.0,1288.7349517857178,120.0,-0.0026711910031735897,495616.0,1136.1473574638367,1.0750081380628274e-14,0.0,2.3862013816833496,-0.02386200986802578,0.0790557712316513,-0.023862013593316078,3.725290298461914e-09,0.0,-0.05543874204158783,0.3937968313694,0.6140304067272024,0.04040540009737015,0.45303747057914734,-0.015033341944217682,0.6338633894920349,3.1783106327056885,0.9992530345916748,,,,,,,
4635376000.0,72.83,-0.3499999940395355,12041169408.0,1294.6835340547696,121.0,-0.003861186560243368,499712.0,1139.3110649585724,1.2096226797986276e-14,0.0,2.3178977966308594,-0.02317897602915764,0.09059703350067139,-0.023178977891802788,1.862645149230957e-09,0.0,-0.02695094235241413,0.42486679553985596,0.5995508473919089,-0.09740879386663437,0.5812457799911499,-0.12435974180698395,0.6713965535163879,3.1637074947357178,0.9991543292999268,,,,,,,
4635376000.0,78.57,-0.6499999761581421,12041169408.0,1270.49956556423,122.0,-0.005499526392668486,503808.0,1142.534993648529,1.3227266504323154e-14,0.0,2.2920756340026855,-0.022920744493603706,0.08704611659049988,-0.022920755669474602,1.1175870895385742e-08,0.0,-0.03724653273820877,0.4156285524368286,0.7023932617615742,-0.1576671004295349,0.6549277901649475,-0.19491365551948547,0.761875569820404,3.223928689956665,0.9993135929107666,,,,,,,
4635376000.0,80.0,-0.7699999809265137,12041169408.0,1245.2499429920524,123.0,-0.00698892492800951,507904.0,1145.8242931365967,1.2790116188376999e-14,0.0,2.275763988494873,-0.02275763265788555,0.08317308127880096,-0.02275764010846615,7.450580596923828e-09,0.0,-0.06256626546382904,0.40307727456092834,0.687425400439345,-0.11105116456747055,0.5595188736915588,-0.173617422580719,0.7209604382514954,3.289299488067627,0.9990777969360352,,,,,,,
4635376000.0,76.81,-0.6399999856948853,12041169408.0,1224.990043065359,124.0,-0.0011900835670530796,512000.0,1149.1679937839508,1.2498682644412895e-14,0.0,2.311314582824707,-0.02311314269900322,0.06485956907272339,-0.02311314456164837,1.862645149230957e-09,0.0,-0.005115050822496414,0.3601730763912201,0.7568310300652015,-0.10541227459907532,0.52890944480896,-0.11052732914686203,0.7303939461708069,3.343700647354126,0.9988617897033691,,,,,,,
4635376000.0,75.74,-0.10999999940395355,12041169408.0,1283.5676746784163,125.0,-0.001936272718012333,516096.0,1152.3590993881226,1.20719406693226e-14,0.0,2.32791805267334,-0.02327919192612171,0.061979424208402634,-0.023279180750250816,-1.1175870895385742e-08,0.0,0.01030431967228651,0.35197004675865173,0.6492310561959624,-0.09778899699449539,0.45657429099082947,-0.08748467266559601,0.5942854881286621,3.191105604171753,1.0002565383911133,,,,,,,
4635376000.0,72.76,-0.05999999865889549,12041169408.0,1334.9889900645912,126.0,0.0019400822930037975,520192.0,1155.4272894859314,1.2649603586822877e-14,0.0,2.243894100189209,-0.02243894338607788,0.03021487593650818,-0.022438939660787582,-4.6566128730773926e-09,0.0,0.057099420577287674,0.239130437374115,0.8521279139567686,-0.20348645746707916,0.582558810710907,-0.1463870257139206,0.6218587160110474,3.068190097808838,0.9989936351776123,,,,,,,
4635376000.0,72.77,0.029999999329447746,12041169408.0,1261.2280199428244,127.0,-0.0016457352321594954,524288.0,1158.674917936325,1.5366180550202557e-14,0.0,2.1690750122070312,-0.021690750494599342,0.024133872240781784,-0.021690750494599342,0.0,0.0,0.04886169731616974,0.2142229825258255,0.9049394908254845,-0.30672183632850647,0.6619817018508911,-0.25786012411117554,0.6948097944259644,3.2476284503936768,0.9993650913238525,,,,,,,
,,,,,,,,,,,,,,,,,,,,,,,,,,0.016016291454434395,0.06947273015975952,0.046074096113443375,0.016016291454434395,0.06947273015975952,0.046074096113443375,
,,,,,,,,,,,,,,,,,,,,,,,,,,0.005692649632692337,0.044283535331487656,0.043297793716192245,0.005692649632692337,0.044283535331487656,0.043297793716192245,
,,,,,,,,,,,,,,,,,,,,,,,,,,0.004445494618266821,0.040731459856033325,0.04058557376265526,0.004445494618266821,0.040731459856033325,0.04058557376265526,
,,,,,,,,,,,,,,,,,,,,,,,,,,0.004474625922739506,0.038520026952028275,0.03868066146969795,0.004474625922739506,0.038520026952028275,0.03868066146969795,
,,,,,,,,,,,,,,,,,,,,,,,,,,0.004369616974145174,0.03708891198039055,0.036709655076265335,0.004369616974145174,0.03708891198039055,0.036709655076265335,
,,,,,,,,,,,,,,,,,,,,,,,,,,0.003232687246054411,0.0346771664917469,0.034108761698007584,0.003232687246054411,0.0346771664917469,0.034108761698007584,
,,,,,,,,,,,,,,,,,,,,,,,,,,,,,,,,-1.17
4635640000.0,76.48,-0.1899999976158142,11990521856.0,16.134912533048496,128.0,-0.0016485985834151506,528384.0,1412.534366607666,1.1301723445988898e-14,0.0,2.1514103412628174,-0.021514106541872025,0.028707534074783325,-0.021514102816581726,-3.725290298461914e-09,0.0,0.032746318727731705,0.237395241856575,0.9147474587771459,-0.23425471782684326,0.7783955335617065,-0.20150838792324066,0.8130521178245544,253.85944867134094,0.9994473457336426,,,,,,,
4635640000.0,75.19,-0.1599999964237213,12041169408.0,1311.1477395427157,129.0,-0.001050993800163269,532480.0,1415.6583471298218,1.1983469772047783e-14,0.0,2.112185478210449,-0.021121857687830925,0.029016733169555664,-0.021121853962540627,-3.725290298461914e-09,0.0,0.016578439623117447,0.2403595745563507,0.8958836986078926,-0.14577168226242065,0.7307071089744568,-0.1291932463645935,0.7449070811271667,3.1239805221557617,0.9993467330932617,,,,,,,
4635640000.0,71.61,-0.11999999731779099,12041169408.0,1277.4553063094206,130.0,0.00015042850282043219,536576.0,1418.8647215366364,1.1862039128729407e-14,0.0,2.1248345375061035,-0.02124834433197975,0.02839251235127449,-0.02124834433197975,0.0,0.0,0.01670612208545208,0.23773878812789917,0.8389203969259263,-0.04842221364378929,0.5689426064491272,-0.03171609342098236,0.5923518538475037,3.206374406814575,0.99920654296875,,,,,,,
4635640000.0,69.52,0.23999999463558197,12041169408.0,1306.4082308907825,131.0,0.002563286107033491,540672.0,1422.0000355243683,1.1542850009149674e-14,0.0,2.127436876296997,-0.021274376660585403,0.034498490393161774,-0.021274369210004807,-7.450580596923828e-09,0.0,0.03305406495928764,0.26061660051345825,0.7705963508712229,-0.023484043776988983,0.5485379695892334,0.009570019319653511,0.544128954410553,3.1353139877319336,0.9986019134521484,,,,,,,
4635640000.0,73.98,0.009999999776482582,12041169408.0,1234.8861282560486,132.0,-0.0016619116067886353,544768.0,1425.3169405460358,1.2760625889285393e-14,0.0,2.0979371070861816,-0.0209793858230114,0.02520761266350746,-0.020979370921850204,-1.4901161193847656e-08,0.0,-0.003360981121659279,0.22453559935092926,0.9308126392066525,-0.24978435039520264,0.8101909756660461,-0.25314533710479736,0.8536342978477478,3.3169050216674805,0.9992067813873291,,,,,,,
4635640000.0,77.17,-0.07000000029802322,12041169408.0,1243.2522789393051,133.0,0.00030282666557468474,548864.0,1428.611525297165,1.1227130336521896e-14,0.0,2.238574504852295,-0.0223857294768095,0.035041168332099915,-0.022385744377970695,1.4901161193847656e-08,0.0,-0.010063325054943562,0.2645716369152069,0.8381378303049097,-0.038377899676561356,0.6155080199241638,-0.04844122380018234,0.6576133370399475,3.2945847511291504,1.0000228881835938,,,,,,,
4635640000.0,75.27,0.03999999910593033,12041169408.0,1290.2449218937754,134.0,-0.00045523582957684994,552960.0,1431.786116361618,1.0880185641326534e-14,0.0,2.184976816177368,-0.021849770098924637,0.026573210954666138,-0.021849768236279488,-1.862645149230957e-09,0.0,-0.006166134029626846,0.23048074543476105,0.8816640543562022,-0.06133945658802986,0.6210435628890991,-0.0675055980682373,0.670002281665802,3.174591064453125,0.9993157386779785,,,,,,,
4635640000.0,72.68,0.18000000715255737,12041169408.0,1308.5464104881935,135.0,0.0034965514205396175,557056.0,1434.9163072109222,9.613837503863465e-15,0.0,2.223540782928467,-0.022235410287976265,0.034170251339673996,-0.022235406562685966,-3.725290298461914e-09,0.0,0.028224660083651543,0.2599237859249115,0.793654966881843,0.013616461306810379,0.5385554432868958,0.041841115802526474,0.5722014904022217,3.130190849304199,0.999284029006958,,,,,,,
4635640000.0,73.53,0.17000000178813934,12041169408.0,1307.9792430183793,136.0,-0.002742117503657937,561152.0,1438.0478553771973,1.045864783666417e-14,0.0,2.215040445327759,-0.022150401026010513,0.03739803284406662,-0.022150404751300812,3.725290298461914e-09,0.0,-0.03101157583296299,0.27175796031951904,0.8447354731229997,-0.10140920430421829,0.6009921431541443,-0.13242077827453613,0.6896775960922241,3.1315481662750244,0.9990537166595459,,,,,,,
4635640000.0,74.79,-0.07999999821186066,12041169408.0,1260.703896705443,137.0,0.0021370304748415947,565248.0,1441.2968339920044,1.0358033875057515e-14,0.0,2.3055295944213867,-0.02305530197918415,0.01720121130347252,-0.023055294528603554,-7.450580596923828e-09,0.0,-0.017097165808081627,0.1847117692232132,0.920296078929562,-0.015007599256932735,0.6010597348213196,-0.03210476413369179,0.6542665958404541,3.248978614807129,0.9988329410552979,,,,,,,
4635640000.0,76.66,0.1899999976158142,12041169408.0,1253.7063566753147,138.0,0.001988651230931282,569344.0,1444.563946723938,9.292913660807756e-15,0.0,2.329456329345703,-0.02329455316066742,0.02558782696723938,-0.023294562473893166,9.313225746154785e-09,0.0,-0.004982303828001022,0.2261931151151657,0.8154323585900118,0.048537760972976685,0.452877938747406,0.043555453419685364,0.5265039205551147,3.2671127319335938,0.9989020824432373,,,,,,,
4635640000.0,78.77,0.28999999165534973,12041169408.0,1241.53146486002,139.0,0.0024529783986508846,573440.0,1447.8630979061127,1.0215786550027417e-14,0.0,2.3156161308288574,-0.02315615490078926,0.025179602205753326,-0.02315616048872471,6.51925802230835e-09,0.0,0.01919417455792427,0.22361350059509277,0.870363628385678,-0.02049442008137703,0.5865048766136169,-0.0013002455234527588,0.6210615038871765,3.2991511821746826,0.9992024898529053,,,,,,,
4635640000.0,75.37,0.25,12041169408.0,1252.4045317852192,140.0,0.002150034997612238,577536.0,1451.133606672287,9.511488818780833e-15,0.0,2.3474717140197754,-0.023474719375371933,0.04727183282375336,-0.023474717512726784,-2.7939677238464355e-09,0.0,-0.02715601958334446,0.3063153922557831,0.6901417821550022,0.12249526381492615,0.4334426522254944,0.09533925354480743,0.5502845644950867,3.2705087661743164,0.9993648529052734,,,,,,,
4635640000.0,74.03,0.20999999344348907,12041169408.0,1262.2808209737123,141.0,0.0006148405373096466,581632.0,1454.3785264492035,9.730063976753911e-15,0.0,2.333681344985962,-0.023336825892329216,0.07493129372596741,-0.02333681285381317,-1.257285475730896e-08,0.0,-0.017198897898197174,0.3867858350276947,0.6373654167484553,0.024213291704654694,0.4887118935585022,0.007014392875134945,0.6422971487045288,3.244919776916504,0.9993183612823486,,,,,,,
4635640000.0,77.27,0.0,12041169408.0,1311.2347020371994,142.0,0.0006154902512207627,585728.0,1457.502299785614,1.0120376758848693e-14,0.0,2.339698314666748,-0.023396989330649376,0.07973720133304596,-0.02339698188006878,-7.450580596923828e-09,0.0,-0.04055158793926239,0.3973267376422882,0.6538757712865262,0.03659578412771225,0.5150520205497742,-0.003955801948904991,0.6753544211387634,3.1237733364105225,0.9995148181915283,,,,,,,
4635640000.0,74.98,-0.14000000059604645,12041169408.0,1294.8565452331204,143.0,-0.003849375993013382,589824.0,1460.665584564209,1.0918349557798024e-14,0.0,2.270408868789673,-0.02270408906042576,0.0729685127735138,-0.02270408906042576,0.0,0.0,-0.049247272312641144,0.3788756728172302,0.785966112621939,-0.11003893613815308,0.6675870418548584,-0.15928620100021362,0.8189463019371033,3.1632847785949707,0.9992988109588623,,,,,,,
4635640000.0,74.3,-0.15000000596046448,12041169408.0,1303.4236438297214,144.0,0.0012334603816270828,593920.0,1463.8080778121948,9.573938863915998e-15,0.0,2.379733085632324,-0.023797333240509033,0.053360000252723694,-0.023797329515218735,-3.725290298461914e-09,0.0,-0.01849561184644699,0.3261960744857788,0.761319813707344,0.012715098448097706,0.5157862901687622,-0.005780515726655722,0.6676833629608154,3.14249324798584,0.999107837677002,,,,,,,
4635640000.0,76.51,0.20000000298023224,12041169408.0,1329.8954873778953,145.0,1.1641532182693481e-10,598016.0,1466.8880190849304,9.360567876370851e-15,0.0,2.346029281616211,-0.02346029132604599,0.04161854833364487,-0.02346029318869114,1.862645149230957e-09,0.0,-0.021387262269854546,0.287749707698822,0.8215712256936932,-0.037871286273002625,0.5452086329460144,-0.059258539229631424,0.681212306022644,3.0799412727355957,0.9996023178100586,,,,,,,
4635640000.0,75.52,-0.029999999329447746,12041169408.0,1335.0962631940845,146.0,-0.0018567051738500595,602112.0,1469.9559626579285,9.71445146547012e-15,0.0,2.3608741760253906,-0.0236087366938591,0.055334754288196564,-0.0236087404191494,3.725290298461914e-09,0.0,-0.001452797558158636,0.3327077031135559,0.7759221318245354,-0.12291128933429718,0.6407197713851929,-0.12436408549547195,0.7028511762619019,3.067943572998047,1.0007739067077637,,,,,,,
4635640000.0,76.25,0.25,12041169408.0,1343.5598870963152,147.0,0.0051141176372766495,606208.0,1473.0045800209045,9.088216290642492e-15,0.0,2.394179344177246,-0.02394179254770279,0.031025517731904984,-0.02394179254770279,0.0,0.0,0.0393843837082386,0.2459973245859146,0.7478807226566202,0.03002876043319702,0.4336152672767639,0.06941314786672592,0.4899224638938904,3.048617362976074,0.9991698265075684,,,,,,,
4635640000.0,77.44,0.2800000011920929,12041169408.0,1320.5339351365394,148.0,-0.0010866024531424046,610304.0,1476.1063556671143,9.986803051198478e-15,0.0,2.3242173194885254,-0.023242171853780746,0.05783293396234512,-0.023242171853780746,0.0,0.0,-0.0010077524930238724,0.34013688564300537,0.8113667879378146,-0.15857917070388794,0.726673424243927,-0.15958690643310547,0.7831494212150574,3.101775646209717,0.998950719833374,,,,,,,
4635640000.0,75.24,0.1599999964237213,12041169408.0,1290.6307967737591,149.0,0.0029551126062870026,614400.0,1479.279997587204,9.414344304126132e-15,0.0,2.379354476928711,-0.0237935408949852,0.024222129955887794,-0.023793544620275497,3.725290298461914e-09,0.0,0.021135836839675903,0.2191101610660553,0.8871615353423905,-0.0417524129152298,0.6152561902999878,-0.02061658352613449,0.652279794216156,3.1736419200897217,0.9992740154266357,,,,,,,
4635640000.0,71.74,0.4099999964237213,12041169408.0,1280.8969675316241,150.0,0.004518870264291763,618496.0,1482.4777567386627,9.204442763532938e-15,0.0,2.361051559448242,-0.02361050806939602,0.04631928354501724,-0.023610515519976616,7.450580596923828e-09,0.0,0.05292801186442375,0.29976511001586914,0.724289534481922,-0.017274262383580208,0.5149798393249512,0.035653747618198395,0.5708926916122437,3.1977591514587402,0.9998598098754883,,,,,,,
4635640000.0,73.98,0.46000000834465027,12041169408.0,1257.5313698273471,151.0,0.002654481679201126,622592.0,1485.7349319458008,9.776901510605285e-15,0.0,2.405299663543701,-0.02405300736427307,0.015299462713301182,-0.024052996188402176,-1.1175870895385742e-08,0.0,0.0278705395758152,0.1727120280265808,0.9291334662576056,-0.08448875695466995,0.632796585559845,-0.056618209928274155,0.648786723613739,3.2571752071380615,0.9991464614868164,,,,,,,
4635640000.0,78.42,0.17000000178813934,12041169408.0,1300.5235429861882,152.0,0.00015642622020095587,626688.0,1488.8844327926636,9.927822453015267e-15,0.0,2.311556816101074,-0.023115569725632668,0.05635204166173935,-0.02311556786298752,-1.862645149230957e-09,0.0,0.03763362765312195,0.3336389660835266,0.8281027562012931,-0.1989293098449707,0.7854286432266235,-0.16129566729068756,0.8047153353691101,3.149500846862793,0.9990146160125732,,,,,,,
4635640000.0,73.52,0.07000000029802322,12041169408.0,1332.619793308941,153.0,0.0025060223415493965,630784.0,1491.9580776691437,9.702308401138282e-15,0.0,2.358341693878174,-0.02358342334628105,0.0523676723241806,-0.023583415895700455,-7.450580596923828e-09,0.0,-0.006341170519590378,0.3236057758331299,0.7886687194383111,-0.031172577291727066,0.5961999893188477,-0.037513744086027145,0.7039379477500916,3.0736448764801025,0.9989862442016602,,,,,,,
4635640000.0,73.28,0.10000000149011612,12041169408.0,1315.3786997987409,154.0,-0.0007845598738640547,634880.0,1495.0720098018646,1.0763959168436088e-14,0.0,2.313443660736084,-0.02313443273305893,0.02184947021305561,-0.023134436458349228,3.725290298461914e-09,0.0,0.0018488659989088774,0.20906025171279907,0.9270389477239345,-0.12488996237516403,0.7416043877601624,-0.12304109334945679,0.773973286151886,3.1139321327209473,0.999321460723877,,,,,,,
4635640000.0,75.57,0.18000000715255737,12041169408.0,1284.3108486518595,155.0,0.004401208367198706,638976.0,1498.2612688541412,1.1348560979840272e-14,0.0,2.3292737007141113,-0.023292727768421173,0.021517351269721985,-0.02329273708164692,1.0244548320770264e-08,0.0,0.04946307837963104,0.20148950815200806,0.9091539818763283,-0.09290073812007904,0.6927944421768188,-0.043437659740448,0.6684970259666443,3.1892590522766113,0.9992940425872803,,,,,,,
4635640000.0,72.88,0.3799999952316284,12041169408.0,1262.8017081912058,156.0,0.0020469864830374718,643072.0,1501.5048501491547,1.0959982921221467e-14,0.0,2.296529769897461,-0.022965287789702415,0.031031498685479164,-0.02296529710292816,9.313225746154785e-09,0.0,0.01702611893415451,0.24857230484485626,0.8883899538579036,-0.11929579079151154,0.7348049283027649,-0.10226964950561523,0.7440482974052429,3.2435812950134277,0.9994289875030518,,,,,,,
4635640000.0,73.55,0.25999999046325684,12041169408.0,1259.3234393836394,157.0,0.0015772851184010506,647168.0,1504.7573902606964,1.0654671589449549e-14,0.0,2.310716152191162,-0.02310715802013874,0.024717070162296295,-0.02310716174542904,4.190951585769653e-09,0.0,0.03297407180070877,0.2199060171842575,0.9264973630167829,-0.11441317200660706,0.8001036047935486,-0.08143910765647888,0.8111210465431213,3.252540111541748,0.9991505146026611,,,,,,,
4635640000.0,73.76,0.30000001192092896,12041169408.0,1313.0885724730667,158.0,0.0022096114698797464,651264.0,1507.8767533302307,1.1114373310583403e-14,0.0,2.306432008743286,-0.023064326494932175,0.06951144337654114,-0.023064319044351578,-7.450580596923828e-09,0.0,-0.030247431248426437,0.37167418003082275,0.7473521063066758,0.07221910357475281,0.558704137802124,0.04197167232632637,0.739442765712738,3.1193630695343018,0.9990019798278809,,,,,,,
4635640000.0,73.92,0.2800000011920929,12041169408.0,1282.0731881305985,159.0,0.0036367615684866905,655360.0,1511.0715787410736,1.0436096431476471e-14,0.0,2.34505558013916,-0.023450544103980064,0.05175887048244476,-0.02345055527985096,1.1175870895385742e-08,0.0,-0.0022306772880256176,0.3217732906341553,0.6734100273692013,0.06645920872688293,0.5714771747589111,0.06422853469848633,0.5630520582199097,3.1948254108428955,0.9991753101348877,,,,,,,
,,,,,,,,,,,,,,,,,,,,,,,,,,0.0034045600332319736,0.0452931709587574,0.03846397623419762,0.0034045600332319736,0.0452931709587574,0.03846397623419762,
,,,,,,,,,,,,,,,,,,,,,,,,,,0.002091303002089262,0.034932225942611694,0.034073080867528915,0.002091303002089262,0.034932225942611694,0.034073080867528915,
,,,,,,,,,,,,,,,,,,,,,,,,,,0.0018393183127045631,0.03181518241763115,0.03168322890996933,0.0018393183127045631,0.03181518241763115,0.03168322890996933,
,,,,,,,,,,,,,,,,,,,,,,,,,,0.0019346760818734765,0.031719181686639786,0.03208210691809654,0.0019346760818734765,0.031719181686639786,0.03208210691809654,
,,,,,,,,,,,,,,,,,,,,,,,,,,0.0020622811280190945,0.031117931008338928,0.03184397891163826,0.0020622811280190945,0.031117931008338928,0.03184397891163826,
,,,,,,,,,,,,,,,,,,,,,,,,,,0.0017164988676086068,0.029126089066267014,0.02943042851984501,0.0017164988676086068,0.029126089066267014,0.02943042851984501,
,,,,,,,,,,,,,,,,,,,,,,,,,,,,,,,,-1.17
4635640000.0,74.96,0.4399999976158142,11990521856.0,16.129922009242808,160.0,0.005542973056435585,659456.0,1765.0095703601837,1.005619199023755e-14,0.0,2.3637051582336426,-0.02363705076277256,0.02408980205655098,-0.02363705076277256,4.656612873077393e-10,0.0,0.02754965052008629,0.21778936684131622,0.8848891449624652,0.06703971326351166,0.6303008198738098,0.09458936750888824,0.6419164538383484,253.9379916191101,0.9992756843566895,,,,,,,
4635640000.0,75.53,0.4300000071525574,12041169408.0,1298.0822376871656,161.0,-0.00031661964021623135,663552.0,1768.1649944782257,1.0666814653781387e-14,0.0,2.276406764984131,-0.022764066234230995,0.11031226068735123,-0.022764066234230995,0.0,0.0,-0.01958462968468666,0.46935567259788513,0.7404006000954637,-0.10611545294523239,0.7932154536247253,-0.12570008635520935,0.9211921095848083,3.155424118041992,0.9987995624542236,,,,,,,
4635640000.0,78.38,0.20999999344348907,12041169408.0,1309.8892269025237,162.0,0.004908621311187744,667648.0,1771.2919764518738,9.601694439531627e-15,0.0,2.3509364128112793,-0.023509366437792778,0.0632188618183136,-0.02350936271250248,-3.725290298461914e-09,0.0,-0.0012852977961301804,0.35562196373939514,0.6986032888707934,0.14705155789852142,0.5178064703941345,0.1457662582397461,0.6477676630020142,3.1269819736480713,0.9988107681274414,,,,,,,
4635640000.0,79.34,0.11999999731779099,12041169408.0,1322.0715667875547,163.0,0.0006334682693704963,671744.0,1774.390144586563,1.0446504772332332e-14,0.0,2.28659987449646,-0.022865990176796913,0.07710579037666321,-0.02286599762737751,7.450580596923828e-09,0.0,-0.030186040326952934,0.39158374071121216,0.7910262795903674,-0.03250064700841904,0.7530868649482727,-0.06268669664859772,0.8566014170646667,3.098168134689331,0.9988982677459717,,,,,,,
4635640000.0,80.46,0.12999999523162842,12041169408.0,1356.0389645529663,164.0,0.000792713719420135,675840.0,1777.4107067584991,8.883518920477229e-15,0.0,2.3565635681152344,-0.023565638810396194,0.06141825392842293,-0.023565635085105896,-2.7939677238464355e-09,0.0,-0.03822338581085205,0.34843236207962036,0.6159153782116372,0.12224367260932922,0.4562554359436035,0.08402027934789658,0.5622183680534363,3.020562171936035,0.9991645812988281,,,,,,,
4635640000.0,78.32,0.10000000149011612,12041169408.0,1332.0464424087118,165.0,0.0006350830080918968,679936.0,1780.4856746196747,9.521897159636694e-15,0.0,2.359119415283203,-0.023591188713908195,0.0545949824154377,-0.023591194301843643,5.587935447692871e-09,0.0,-0.028856094926595688,0.3292168974876404,0.7879475010826934,-0.04269509017467499,0.6460244655609131,-0.07155118882656097,0.7149248719215393,3.074967861175537,0.9988582134246826,,,,,,,
4635640000.0,79.12,0.05999999865889549,12041169408.0,1354.3990383220587,166.0,-0.0003178761980962008,684032.0,1783.5098941326141,1.0512424264419451e-14,0.0,2.297088623046875,-0.022970881313085556,0.06478006392717361,-0.022970885038375854,3.725290298461914e-09,0.0,-0.018514784052968025,0.35951200127601624,0.7521013663726884,0.07150275260210037,0.556166410446167,0.052987970411777496,0.7220649719238281,3.024219512939453,0.9988534450531006,,,,,,,
4635640000.0,84.41,-0.009999999776482582,12041169408.0,1273.7075391011915,167.0,-0.00047684251330792904,688128.0,1786.7257030010223,1.0356299151581538e-14,0.0,2.318159818649292,-0.02318158932030201,0.06549680233001709,-0.023181596770882607,7.450580596923828e-09,0.0,-0.06214192137122154,0.35659924149513245,0.7916663845561391,0.060613080859184265,0.637925386428833,-0.0015288442373275757,0.7812692523002625,3.215808868408203,0.9993157386779785,,,,,,,
4635640000.0,77.46,0.019999999552965164,12041169408.0,1285.4317930705422,168.0,0.002228429773822427,692224.0,1789.9121809005737,1.0247011572595e-14,0.0,2.3271756172180176,-0.02327175810933113,0.03463684767484665,-0.023271756246685982,-1.862645149230957e-09,0.0,0.006841979920864105,0.2631421685218811,0.8146860404089178,0.0038017313927412033,0.556243896484375,0.01064370758831501,0.6112746000289917,3.1864778995513916,0.999335527420044,,,,,,,
4635640000.0,72.98,0.28999999165534973,12041169408.0,1314.9276641915528,169.0,0.0035061356611549854,696320.0,1793.027181148529,1.0021497520718015e-14,0.0,2.348052740097046,-0.023480525240302086,0.03048384003341198,-0.023480527102947235,2.3283064365386963e-09,0.0,-0.000996141228824854,0.24694447219371796,0.8725398864285819,0.06233644112944603,0.5955608487129211,0.061340294778347015,0.6916910409927368,3.1150002479553223,0.999161958694458,,,,,,,
4635640000.0,78.32,0.5400000214576721,12041169408.0,1338.4993347966042,170.0,0.00558375334367156,700416.0,1796.0873246192932,1.0451708942760263e-14,0.0,2.3171353340148926,-0.023171337321400642,0.03717990964651108,-0.023171352222561836,1.4901161193847656e-08,0.0,0.03294109180569649,0.2707260549068451,0.8175399888249502,0.03822401911020279,0.6714161038398743,0.07116510719060898,0.6337912082672119,3.06014347076416,0.9988448619842529,,,,,,,
4635640000.0,82.66,0.47999998927116394,12041169408.0,1315.4674331658205,171.0,0.0006386822205968201,704512.0,1799.201046705246,1.0288644936018443e-14,0.0,2.332533121109009,-0.02332533895969391,0.02332104742527008,-0.023325331509113312,-7.450580596923828e-09,0.0,-0.015150976367294788,0.21546199917793274,0.9332682652198593,-0.11216457933187485,0.7479386329650879,-0.12731555104255676,0.8340738415718079,3.113722085952759,0.9992811679840088,,,,,,,
4635640000.0,79.92,0.3499999940395355,12041169408.0,1286.705110632392,172.0,0.006077282130718231,708608.0,1802.3843712806702,1.10397802011164e-14,0.0,2.343079090118408,-0.023430809378623962,0.020122848451137543,-0.02343079075217247,-1.955777406692505e-08,0.0,0.03430524468421936,0.19768252968788147,0.8780151147457225,0.0922185406088829,0.5373262763023376,0.12652379274368286,0.5659985542297363,3.1833245754241943,0.9990732669830322,,,,,,,
4635640000.0,75.38,0.47999998927116394,12041169408.0,1261.9343267628267,173.0,0.0014412793098017573,712704.0,1805.6301820278168,9.733533423705865e-15,0.0,2.372389316558838,-0.023723889142274857,0.03706534951925278,-0.023723892867565155,3.725290298461914e-09,0.0,-0.005818869918584824,0.27224060893058777,0.8090457218718135,0.005169034004211426,0.5523045063018799,-0.0006498396396636963,0.6230002045631409,3.2458107471466064,0.9995694160461426,,,,,,,
4635640000.0,74.17,0.3199999928474426,12041169408.0,1308.3708179603668,174.0,0.0038500225637108088,716800.0,1808.7607929706573,1.0054457266761574e-14,0.0,2.400123357772827,-0.024001222103834152,0.033422622829675674,-0.024001233279705048,1.1175870895385742e-08,0.0,0.00045561324805021286,0.2585756480693817,0.8421253099078435,0.054491057991981506,0.6567028760910034,0.054946672171354294,0.6507757306098938,3.130610942840576,0.9988718032836914,,,,,,,
4635640000.0,71.75,0.41999998688697815,12041169408.0,1303.0578543889264,175.0,0.004819073714315891,720896.0,1811.9041683673859,1.0940900962985722e-14,0.0,2.363978862762451,-0.023639777675271034,0.03939155116677284,-0.02363978885114193,1.1175870895385742e-08,0.0,0.02565191313624382,0.2795427739620209,0.7909800069554932,0.035803552716970444,0.619475781917572,0.061455465853214264,0.6114407181739807,3.1433753967285156,1.0021181106567383,,,,,,,
4635640000.0,73.67,0.6100000143051147,12041169408.0,1270.6242587537286,176.0,0.005308541003614664,724992.0,1815.127780675888,1.0070069778045365e-14,0.0,2.3743224143981934,-0.023743214085698128,0.038720957934856415,-0.023743223398923874,9.778887033462524e-09,0.0,0.02546200156211853,0.277150422334671,0.8279314077096037,0.00028155744075775146,0.6943078637123108,0.025743570178747177,0.6681358218193054,3.2236123085021973,0.9989919662475586,,,,,,,
4635640000.0,74.32,0.47999998927116394,12041169408.0,1302.5964617935238,177.0,0.002900497056543827,729088.0,1818.272269487381,1.0772632785815972e-14,0.0,2.3449578285217285,-0.023449581116437912,0.026873016729950905,-0.023449577391147614,-3.725290298461914e-09,0.0,0.03312098979949951,0.2294817715883255,0.8528191360868497,-0.020454172044992447,0.5959265828132629,0.012666814960539341,0.5981671214103699,3.14448881149292,0.9995298385620117,,,,,,,
4635640000.0,79.11,0.27000001072883606,12041169408.0,1314.2830595579783,178.0,0.0017749436665326357,733184.0,1821.3887975215912,1.1079678841063867e-14,0.0,2.346191167831421,-0.023461908102035522,0.04148299992084503,-0.02346191182732582,2.7939677238464355e-09,0.0,-0.009995700791478157,0.28789982199668884,0.8332606027334326,-0.008398826234042645,0.5984862446784973,-0.018394524231553078,0.7050539255142212,3.116528034210205,0.9988782405853271,,,,,,,
4635640000.0,81.74,0.17000000178813934,12041169408.0,1283.0151461912792,179.0,0.0009686120320111513,737280.0,1824.5812773704529,1.1411011024975437e-14,0.0,2.3207781314849854,-0.023207779973745346,0.07494759559631348,-0.023207779973745346,0.0,0.0,-0.003859926015138626,0.3871909976005554,0.7208652086236562,-0.020959746092557907,0.6359909772872925,-0.024819664657115936,0.7328554391860962,3.1924798488616943,0.9994783401489258,,,,,,,
4635640000.0,76.54,0.25,12041169408.0,1281.7963598049178,180.0,0.003879695199429989,741376.0,1827.7767927646637,1.1733669591507123e-14,0.0,2.2907283306121826,-0.022907275706529617,0.05799171328544617,-0.022907283157110214,7.450580596923828e-09,0.0,0.009042429737746716,0.3404849171638489,0.6566423971471649,0.07408762723207474,0.4984739124774933,0.08313006162643433,0.581064760684967,3.1955153942108154,0.9989211559295654,,,,,,,
4635640000.0,77.07,0.3700000047683716,12041169408.0,1306.078693436973,181.0,0.0030759726651012897,745472.0,1830.912897825241,1.1587952819525071e-14,0.0,2.2815093994140625,-0.022815098986029625,0.046476081013679504,-0.022815093398094177,-5.587935447692871e-09,0.0,-0.01767442375421524,0.30440500378608704,0.6902704329811691,0.061007916927337646,0.41933929920196533,0.043333500623703,0.5469661355018616,3.1361050605773926,0.998795747756958,,,,,,,
4635640000.0,77.32,0.25,12041169408.0,1322.3242345239166,182.0,0.0022696461528539658,749568.0,1834.0104739665985,1.10397802011164e-14,0.0,2.311906337738037,-0.023119062185287476,0.06355185061693192,-0.023119062185287476,0.0,0.0,-0.0037291711196303368,0.35654008388519287,0.6973406856234599,0.05053703486919403,0.5224643349647522,0.04680786281824112,0.6480840444564819,3.097576141357422,0.999168872833252,,,,,,,
4635640000.0,75.88,0.23000000417232513,12041169408.0,1256.5566854737137,183.0,0.002761390060186386,753664.0,1837.2701756954193,1.1929693344292502e-14,0.0,2.260918378829956,-0.022609185427427292,0.03531690686941147,-0.022609183564782143,-2.7939677238464355e-09,0.0,0.026311930269002914,0.2644968330860138,0.72479497493911,0.011568833142518997,0.49654343724250793,0.03788076713681221,0.5041877627372742,3.259701728820801,0.9993908405303955,,,,,,,
4635640000.0,72.07,0.4099999964237213,12041169408.0,1231.6846759981472,184.0,0.004716923926025629,757760.0,1840.5957021713257,1.1624382012520584e-14,0.0,2.305063486099243,-0.023050637915730476,0.027523089200258255,-0.023050634190440178,-3.725290298461914e-09,0.0,0.007850689813494682,0.2345164567232132,0.8356767441816313,0.0818888247013092,0.5230438113212585,0.08973953127861023,0.5785272121429443,3.325526475906372,0.9991850852966309,,,,,,,
4635640000.0,74.35,0.6899999976158142,12041169408.0,1245.9984638854241,185.0,0.008630233816802502,761856.0,1843.8830256462097,1.1601830607332886e-14,0.0,2.328354835510254,-0.023283544927835464,0.026256820186972618,-0.023283548653125763,4.6566128730773926e-09,0.0,0.038944315165281296,0.22585269808769226,0.7748173523726913,0.1218358725309372,0.3764098882675171,0.1607801914215088,0.4759461283683777,3.287323474884033,0.9994869232177734,,,,,,,
4635640000.0,76.14,1.0,12041169408.0,1229.733697207481,186.0,0.008314227685332298,765952.0,1847.213828086853,1.1959183643384108e-14,0.0,2.2471094131469727,-0.022471096366643906,0.022324899211525917,-0.022471094503998756,-1.862645149230957e-09,0.0,0.030094869434833527,0.2091764360666275,0.8647977670738088,0.15914227068424225,0.5134513974189758,0.18923714756965637,0.5688802003860474,3.3308024406433105,0.9989173412322998,,,,,,,
4635640000.0,74.84,0.7699999809265137,12041169408.0,1292.8125459458015,187.0,0.00440911203622818,770048.0,1850.3821141719818,1.0704978570252877e-14,0.0,2.3559000492095947,-0.023559004068374634,0.020627334713935852,-0.023559000343084335,-3.725290298461914e-09,0.0,0.0014713602140545845,0.20313191413879395,0.8632021398908146,0.08747640997171402,0.4512755870819092,0.08894777297973633,0.5492101311683655,3.168286085128784,0.9994997978210449,,,,,,,
4635640000.0,73.33,0.6600000262260437,12041169408.0,1309.4238829454548,188.0,0.007850082591176033,774144.0,1853.510207414627,1.1440501324067043e-14,0.0,2.28460693359375,-0.022846069186925888,0.02379591390490532,-0.022846069186925888,0.0,0.0,0.02856801450252533,0.21630330383777618,0.8115617535603826,0.1885155886411667,0.47862184047698975,0.21708360314369202,0.4982859492301941,3.1280932426452637,0.9993312358856201,,,,,,,
4635640000.0,76.95,0.9300000071525574,12041169408.0,1329.4886609927455,189.0,0.008838878944516182,778240.0,1856.5910911560059,1.1927958620816526e-14,0.0,2.305819034576416,-0.023058192804455757,0.03343277424573898,-0.02305818907916546,-3.725290298461914e-09,0.0,0.022129487246274948,0.25766652822494507,0.8298069309982067,0.22172969579696655,0.5410851836204529,0.2438591867685318,0.624578595161438,3.080883741378784,0.9992208480834961,,,,,,,
4635640000.0,82.75,1.0299999713897705,12041169408.0,1282.3031402633862,190.0,0.00802979338914156,782336.0,1859.7853436470032,1.2339088084623029e-14,0.0,2.324218988418579,-0.02324218675494194,0.019423287361860275,-0.02324218861758709,1.862645149230957e-09,0.0,0.03321557119488716,0.1943000853061676,0.8938952292824938,0.15489304065704346,0.5379200577735901,0.1881086230278015,0.5964931845664978,3.1942524909973145,0.9992311000823975,,,,,,,
4635640000.0,81.8,0.8500000238418579,12041169408.0,1266.2926173914896,191.0,0.0042666601948440075,786432.0,1863.0199830532074,1.153417639176979e-14,0.0,2.313386917114258,-0.02313387580215931,0.037039026618003845,-0.023133868351578712,-7.450580596923828e-09,0.0,-0.0026721926406025887,0.27219295501708984,0.7419430141172558,0.15614338219165802,0.4998336732387543,0.1534712016582489,0.5358201861381531,3.2346394062042236,0.9990301132202148,,,,,,,
,,,,,,,,,,,,,,,,,,,,,,,,,,0.005443614441901445,0.05159171298146248,0.045048922300338745,0.005443614441901445,0.05159171298146248,0.045048922300338745,
,,,,,,,,,,,,,,,,,,,,,,,,,,0.0034253266640007496,0.040653083473443985,0.041570812463760376,0.0034253266640007496,0.040653083473443985,0.041570812463760376,
,,,,,,,,,,,,,,,,,,,,,,,,,,0.0029944023117423058,0.0362626388669014,0.036754198372364044,0.0029944023117423058,0.0362626388669014,0.036754198372364044,
,,,,,,,,,,,,,,,,,,,,,,,,,,0.002257163403555751,0.035218384116888046,0.03490699455142021,0.002257163403555751,0.035218384116888046,0.03490699455142021,
,,,,,,,,,,,,,,,,,,,,,,,,,,0.002281010616570711,0.03409789130091667,0.033559881150722504,0.002281010616570711,0.03409789130091667,0.033559881150722504,
,,,,,,,,,,,,,,,,,,,,,,,,,,0.0028299340046942234,0.03469536453485489,0.0344538651406765,0.0028299340046942234,0.03469536453485489,0.0344538651406765,
,,,,,,,,,,,,,,,,,,,,,,,,,,,,,,,,-0.37
4635640000.0,74.88,0.5799999833106995,11990521856.0,16.16604543835529,192.0,0.006410202011466026,790528.0,2116.390543937683,1.0807327255335508e-14,0.0,2.360534429550171,-0.023605352267622948,0.03558877855539322,-0.0236053429543972,-9.313225746154785e-09,0.0,0.04366391897201538,0.2632260024547577,0.757381898228703,0.1612335443496704,0.4975772500038147,0.2048974484205246,0.534400999546051,253.3705608844757,0.9994509220123291,,,,,,,
4635640000.0,76.57,0.6399999856948853,12041169408.0,1308.7742926127737,193.0,0.004610201809555292,794624.0,2119.5201897621155,1.0684161888541155e-14,0.0,2.3310582637786865,-0.023310581222176552,0.04519105330109596,-0.023310581222176552,0.0,0.0,0.017494533210992813,0.3001633584499359,0.6094482556406889,0.13648544251918793,0.464688777923584,0.15397998690605164,0.4803064167499542,3.129645824432373,0.9990549087524414,,,,,,,
4635640000.0,75.73,0.36000001430511475,12041169408.0,1366.987244113635,194.0,0.001977517269551754,798720.0,2122.5165600776672,1.1792650189690335e-14,0.0,2.3080222606658936,-0.02308022603392601,0.04954104125499725,-0.02308022230863571,-3.725290298461914e-09,0.0,-0.04120214655995369,0.3121029734611511,0.8385855937977575,0.05794701725244522,0.7039032578468323,0.01674487441778183,0.7768313884735107,2.996370315551758,0.9988672733306885,,,,,,,
4635640000.0,81.21,0.41999998688697815,12041169408.0,1224.3555378813712,195.0,0.0070909904316067696,802816.0,2125.8619935512543,1.0305992170778211e-14,0.0,2.2976841926574707,-0.022976838052272797,0.05303666368126869,-0.022976841777563095,3.725290298461914e-09,0.0,-0.0008809282444417477,0.32572758197784424,0.7621270483764909,0.23266485333442688,0.5711557865142822,0.231783926486969,0.6678546667098999,3.345433473587036,0.9997425079345703,,,,,,,
4635640000.0,83.82,0.5099999904632568,12041169408.0,1227.7249257785322,196.0,0.0019812220707535744,806912.0,2129.1982457637787,1.1764894614074706e-14,0.0,2.262535572052002,-0.022625349462032318,0.06521284580230713,-0.022625355049967766,5.587935447692871e-09,0.0,0.01583453267812729,0.3608417212963104,0.6366152644012568,0.027349580079317093,0.6086598634719849,0.04318411275744438,0.5985954403877258,3.336252212524414,0.9987869262695312,,,,,,,
4635640000.0,80.15,0.6299999952316284,12041169408.0,1276.4685673908837,197.0,0.008263180032372475,811008.0,2132.4070987701416,1.1724995974127239e-14,0.0,2.329927444458008,-0.023299263790249825,0.029202759265899658,-0.02329927310347557,9.313225746154785e-09,0.0,0.005982515402138233,0.2416277676820755,0.8471639856083565,0.20778964459896088,0.5451139211654663,0.21377214789390564,0.6180647611618042,3.208853006362915,0.998969554901123,,,,,,,
4635640000.0,85.48,0.9800000190734863,12041169408.0,1314.2724019360192,198.0,0.006450763437896967,815104.0,2135.523652076721,1.1589687543001048e-14,0.0,2.2801785469055176,-0.022801779210567474,0.0258529894053936,-0.022801784798502922,4.6566128730773926e-09,0.0,0.021932143718004227,0.22635695338249207,0.8849311479674671,0.16467872262001038,0.6323640942573547,0.1866108775138855,0.6672905087471008,3.11655330657959,0.9993712902069092,,,,,,,
4635640000.0,85.62,0.7900000214576721,12041169408.0,1233.6892496950761,199.0,0.005134693346917629,819200.0,2138.843775033951,1.1969591984239969e-14,0.0,2.2837936878204346,-0.02283795177936554,0.03459657356142998,-0.022837936878204346,-1.4901161193847656e-08,0.0,-0.001093922182917595,0.26307573914527893,0.8534789784061743,0.14541710913181305,0.6346420049667358,0.1443231850862503,0.6872754096984863,3.3201229572296143,0.9991288185119629,,,,,,,
4635640000.0,83.85,0.6800000071525574,12041169408.0,1282.1893500601357,200.0,0.005140479188412428,823296.0,2142.0383110046387,1.2205514376972815e-14,0.0,2.2648754119873047,-0.022648783400654793,0.061349883675575256,-0.022648753598332405,-2.9802322387695312e-08,0.0,-0.03716037794947624,0.3483511209487915,0.6720853180830315,0.24913334846496582,0.5211988687515259,0.21197299659252167,0.6083265542984009,3.194535970687866,0.9990732669830322,,,,,,,
4635640000.0,85.21,0.6399999856948853,12041169408.0,1332.5263537791332,201.0,0.005478968843817711,827392.0,2145.1121714115143,1.1714587633271378e-14,0.0,2.275930404663086,-0.02275930717587471,0.03201359510421753,-0.02275930345058441,-3.725290298461914e-09,0.0,-0.01562531478703022,0.25258389115333557,0.8215890892904502,0.2554365396499634,0.558556079864502,0.2398112416267395,0.5979913473129272,3.0738604068756104,0.9995217323303223,,,,,,,
4635640000.0,80.52,0.6600000262260437,12041169408.0,1304.0347722988417,202.0,0.0043220240622758865,831488.0,2148.253191947937,1.289246487345963e-14,0.0,2.203071117401123,-0.02203071489930153,0.047681525349617004,-0.02203071117401123,-3.725290298461914e-09,0.0,-0.01681576855480671,0.3083885610103607,0.7673380594518335,0.10922224074602127,0.609239935874939,0.09240646660327911,0.6393454670906067,3.1410205364227295,0.999060869216919,,,,,,,
4635640000.0,77.6,0.41999998688697815,12041169408.0,1290.3617940642005,203.0,0.0038275793194770813,835584.0,2151.4274954795837,1.40391170910803e-14,0.0,2.1950595378875732,-0.02195058763027191,0.03583633527159691,-0.02195059508085251,7.450580596923828e-09,0.0,-0.015525050461292267,0.267299622297287,0.8403037335049458,0.06188686192035675,0.5681414604187012,0.046361811459064484,0.6688841581344604,3.1743035316467285,0.9995620250701904,,,,,,,
4635640000.0,75.21,0.5600000023841858,12041169408.0,1316.430572011063,204.0,0.006833051797002554,839680.0,2154.538939476013,1.3579415369946446e-14,0.0,2.2376506328582764,-0.022376498207449913,0.01891448348760605,-0.02237650565803051,6.984919309616089e-09,0.0,0.006438512820750475,0.19441384077072144,0.8915865492748493,0.19588583707809448,0.5549845695495605,0.20232434570789337,0.5904533267021179,3.1114439964294434,0.9991536140441895,,,,,,,
4635640000.0,79.15,0.6200000047683716,12041169408.0,1307.7480539487478,205.0,0.005839787423610687,843776.0,2157.671041250229,1.2748482824953555e-14,0.0,2.212636947631836,-0.02212635427713394,0.044633109122514725,-0.022126369178295135,1.4901161193847656e-08,0.0,0.010369526222348213,0.2986310124397278,0.7970636235209141,0.17431680858135223,0.5577993988990784,0.1846863329410553,0.6629105806350708,3.1321017742156982,0.9994227886199951,,,,,,,
4635640000.0,83.52,0.7400000095367432,12041169408.0,1258.0560823410567,206.0,0.006177881732583046,847872.0,2160.926857948303,1.3529108389143119e-14,0.0,2.2160844802856445,-0.022160843014717102,0.03361835703253746,-0.02216084487736225,1.862645149230957e-09,0.0,-0.008869212120771408,0.25918033719062805,0.8194955483567986,0.19527322053909302,0.4904279410839081,0.18640398979187012,0.6100396513938904,3.255816698074341,0.9995763301849365,,,,,,,
4635640000.0,82.31,0.9300000071525574,12041169408.0,1267.478251220824,207.0,0.008024970069527626,851968.0,2164.15847158432,1.3778908569683779e-14,0.0,2.217306137084961,-0.022173063829541206,0.02248397096991539,-0.022173060104250908,-3.725290298461914e-09,0.0,0.02657899260520935,0.21040984988212585,0.8085271427397784,0.2105763554573059,0.45258501172065735,0.23715534806251526,0.4808531403541565,3.2316136360168457,0.9990119934082031,,,,,,,
4635640000.0,75.28,0.699999988079071,12041169408.0,1253.7843106746461,208.0,0.004856318235397339,856064.0,2167.4253811836243,1.2510825708744733e-14,0.0,2.237703323364258,-0.022377032786607742,0.02943834476172924,-0.022377032786607742,0.0,0.0,-0.013906086795032024,0.24227595329284668,0.6991047710552638,0.19986721873283386,0.3977707624435425,0.18596112728118896,0.4416748285293579,3.266909599304199,0.9990208148956299,,,,,,,
4635640000.0,75.51,0.5899999737739563,12041169408.0,1308.0638933927423,209.0,0.005869736894965172,860160.0,2170.556726694107,1.3817072486155269e-14,0.0,2.201353073120117,-0.02201353758573532,0.029084090143442154,-0.022013530135154724,-7.450580596923828e-09,0.0,0.016906768083572388,0.24061685800552368,0.7356637676762348,0.20709815621376038,0.41466474533081055,0.22400492429733276,0.4680020213127136,3.131345510482788,0.9991834163665771,,,,,,,
4635640000.0,84.53,0.6600000262260437,12041169408.0,1314.231582831874,210.0,0.003860472235828638,864256.0,2173.6733767986298,1.4569942474729203e-14,0.0,2.1628501415252686,-0.021628500893712044,0.05496266856789589,-0.021628500893712044,0.0,0.0,-0.023705696687102318,0.3307417035102844,0.6468437570894664,0.1341753751039505,0.4506206810474396,0.11046966910362244,0.5565516948699951,3.116650104522705,0.9990270137786865,,,,,,,
4635640000.0,78.52,0.7699999809265137,12041169408.0,1277.2378194038881,211.0,0.009576636366546154,868352.0,2176.8802971839905,1.3917686447761923e-14,0.0,2.197072982788086,-0.02197073958814144,0.020138537511229515,-0.021970728412270546,-1.1175870895385742e-08,0.0,0.03996271267533302,0.196696475148201,0.8621001936359136,0.20132943987846375,0.5240134000778198,0.24129216372966766,0.529681384563446,3.2069203853607178,0.9995687007904053,,,,,,,
4635640000.0,77.32,0.7900000214576721,12041169408.0,1279.0692998025022,212.0,0.0037004316691309214,872448.0,2180.0826256275177,1.463586196681632e-14,0.0,2.190969228744507,-0.021909698843955994,0.05481693893671036,-0.021909691393375397,-7.450580596923828e-09,0.0,-0.014120867475867271,0.33084920048713684,0.6595311079747272,0.15824481844902039,0.47628888487815857,0.14412395656108856,0.5670108795166016,3.2023284435272217,0.9993300437927246,,,,,,,
4635640000.0,81.67,0.5699999928474426,12041169408.0,1271.177545121412,213.0,0.005218599922955036,876544.0,2183.304834842682,1.4765966227514582e-14,0.0,2.2032339572906494,-0.02203233540058136,0.04807022958993912,-0.02203233912587166,4.423782229423523e-09,0.0,-0.013496085070073605,0.30980920791625977,0.7769113927264709,0.10555925965309143,0.526366114616394,0.09206316620111465,0.6559271812438965,3.2222092151641846,0.9993033409118652,,,,,,,
4635640000.0,84.92,0.47999998927116394,12041169408.0,1261.1813559564662,214.0,0.001516505260951817,880640.0,2186.5525834560394,1.505566504800271e-14,0.0,2.16664457321167,-0.021666448563337326,0.05778928101062775,-0.021666444838047028,-3.725290298461914e-09,0.0,-0.01446898840367794,0.33970192074775696,0.6857546922572015,0.05144774168729782,0.44435396790504456,0.03697875887155533,0.6059874296188354,3.247748613357544,0.999316930770874,,,,,,,
4635640000.0,85.36,0.1899999976158142,12041169408.0,1257.8465315972282,215.0,0.003542608115822077,884736.0,2189.808942556381,1.5622919624647125e-14,0.0,2.144340991973877,-0.021443404257297516,0.05941839516162872,-0.021443409845232964,4.6566128730773926e-09,0.0,-0.00048304442316293716,0.3447688817977905,0.6088419744162976,0.13907964527606964,0.4128192067146301,0.13859660923480988,0.5512542128562927,3.256359100341797,0.9992070198059082,,,,,,,
4635640000.0,86.5,0.23000000417232513,12041169408.0,1277.9064715595584,216.0,0.0011816860642284155,888832.0,2193.014184951782,1.6955187254197313e-14,0.0,2.094327211380005,-0.020943274721503258,0.08791278302669525,-0.02094327099621296,-3.725290298461914e-09,0.0,-0.006634065881371498,0.41931429505348206,0.5876373678350875,0.03806144744157791,0.48632779717445374,0.03142738342285156,0.6529802680015564,3.205242395401001,0.9990777969360352,,,,,,,
4635640000.0,84.88,0.3100000023841858,12041169408.0,1296.2871942374388,217.0,0.0035483865067362785,892928.0,2196.1739785671234,1.623874645861889e-14,0.0,2.091299533843994,-0.02091299742460251,0.06871950626373291,-0.02091299556195736,-2.7939677238464355e-09,0.0,-0.021453313529491425,0.3701516389846802,0.7674706346296655,0.05628077685832977,0.6432673335075378,0.03482745587825775,0.7676102519035339,3.1597936153411865,0.9993658065795898,,,,,,,
4635640000.0,83.96,0.46000000834465027,12041169408.0,1359.1585861383599,218.0,0.00625952472910285,897024.0,2199.1876077651978,1.568536966978229e-14,0.0,2.130316734313965,-0.021303167566657066,0.03442290425300598,-0.021303167566657066,0.0,0.0,0.04684969037771225,0.25819990038871765,0.7377167968410705,0.14088307321071625,0.47803324460983276,0.1877327710390091,0.5041628479957581,3.013629198074341,1.0016369819641113,,,,,,,
4635640000.0,85.82,0.8799999952316284,12041169408.0,1260.0126430543291,219.0,0.008467473089694977,901120.0,2202.4383687973022,1.631507429156187e-14,0.0,2.1682376861572266,-0.021682385355234146,0.030193272978067398,-0.0216823760420084,-1.0244548320770264e-08,0.0,0.04724067449569702,0.24118264019489288,0.8245762587956411,0.168412446975708,0.5139958262443542,0.21565312147140503,0.5758399963378906,3.250761032104492,0.9990990161895752,,,,,,,
4635640000.0,84.6,1.0,12041169408.0,1238.7006770221294,220.0,0.00881568156182766,905216.0,2205.745059490204,1.5846698953048133e-14,0.0,2.1353085041046143,-0.02135307528078556,0.021078364923596382,-0.021353084594011307,9.313225746154785e-09,0.0,0.04785236343741417,0.1996913105249405,0.8281576729028642,0.17856058478355408,0.4548951983451843,0.22641295194625854,0.48171934485435486,3.3066906929016113,0.999089241027832,,,,,,,
4635640000.0,81.59,0.8600000143051147,12041169408.0,1267.0226440353165,221.0,0.005260315723717213,909312.0,2208.9778351783752,1.547373340571312e-14,0.0,2.135101079940796,-0.021351005882024765,0.05426936596632004,-0.021351009607315063,3.725290298461914e-09,0.0,-0.026450134813785553,0.3284287750720978,0.7426229245478315,0.20205599069595337,0.5339018106460571,0.1756058633327484,0.6473755240440369,3.2327756881713867,0.999476432800293,,,,,,,
4635640000.0,81.23,0.7099999785423279,12041169408.0,1288.300067917477,222.0,0.0054376693442463875,913408.0,2212.157218694687,1.6561405025150577e-14,0.0,2.139754295349121,-0.02139754593372345,0.03053276240825653,-0.02139754220843315,-3.725290298461914e-09,0.0,0.021657073870301247,0.24619360268115997,0.8459915799740195,0.10814591497182846,0.6315423250198364,0.12980298697948456,0.6273422241210938,3.1793835163116455,0.9990482330322266,,,,,,,
4635640000.0,81.31,0.8199999928474426,12041169408.0,1250.8307701179058,223.0,0.009357334114611149,917504.0,2215.431842327118,1.5982007384174324e-14,0.0,2.1116628646850586,-0.02111661806702614,0.026322029531002045,-0.021116627380251884,8.381903171539307e-09,0.0,0.031173039227724075,0.22734317183494568,0.8247233952307145,0.17472200095653534,0.5086935758590698,0.2058950513601303,0.5430251359939575,3.2746236324310303,0.9988715648651123,,,,,,,
,,,,,,,,,,,,,,,,,,,,,,,,,,0.0036433993373066187,0.04558439925312996,0.03913271799683571,0.0036433993373066187,0.04558439925312996,0.03913271799683571,
,,,,,,,,,,,,,,,,,,,,,,,,,,0.002101991092786193,0.037377193570137024,0.035721585154533386,0.002101991092786193,0.037377193570137024,0.035721585154533386,
,,,,,,,,,,,,,,,,,,,,,,,,,,0.002012197393923998,0.03533609211444855,0.03376440703868866,0.002012197393923998,0.03533609211444855,0.03376440703868866,
,,,,,,,,,,,,,,,,,,,,,,,,,,0.0018611885607242584,0.03410785272717476,0.032899655401706696,0.0018611885607242584,0.03410785272717476,0.032899655401706696,
,,,,,,,,,,,,,,,,,,,,,,,,,,0.0024272040463984013,0.03353996202349663,0.03346577659249306,0.0024272040463984013,0.03353996202349663,0.03346577659249306,
,,,,,,,,,,,,,,,,,,,,,,,,,,0.0025135113392025232,0.032903824001550674,0.032881204038858414,0.0025135113392025232,0.032903824001550674,0.032881204038858414,
,,,,,,,,,,,,,,,,,,,,,,,,,,,,,,,,-0.49
4635640000.0,84.46,0.8700000047683716,11990521856.0,16.11627205466124,224.0,0.005619814619421959,921600.0,2469.584911108017,1.3907278106906062e-14,0.0,2.128263473510742,-0.021282631903886795,0.029953449964523315,-0.021282633766531944,1.862645149230957e-09,0.0,0.0012866719625890255,0.2447853684425354,0.7660406876868795,0.14495448768138885,0.45775648951530457,0.14624115824699402,0.5060754418373108,254.15306878089905,0.999150276184082,,,,,,,
4635640000.0,82.24,0.8199999928474426,12041169408.0,1324.4025560701423,225.0,0.008186918683350086,925696.0,2472.6776263713837,1.5156279009609364e-14,0.0,2.1191954612731934,-0.021191969513893127,0.01944790780544281,-0.021191954612731934,-1.4901161193847656e-08,0.0,0.041076164692640305,0.19291876256465912,0.8118654932908196,0.19648951292037964,0.4596075713634491,0.23756566643714905,0.444774866104126,3.092715263366699,0.9990558624267578,,,,,,,
4635640000.0,77.94,0.8399999737739563,12041169408.0,1354.374266756055,226.0,0.004779748152941465,929792.0,2475.7019011974335,1.5045256707146848e-14,0.0,2.084277629852295,-0.020842770114541054,0.041281670331954956,-0.0208427757024765,5.587935447692871e-09,0.0,-0.019183650612831116,0.2867322862148285,0.793627773709733,0.1686178743839264,0.5839112997055054,0.14943423867225647,0.6311767101287842,3.0242748260498047,0.999103307723999,,,,,,,
4635640000.0,77.73,0.6899999976158142,12041169408.0,1283.5250965807693,227.0,0.008375328034162521,933888.0,2478.8931126594543,1.399574900418088e-14,0.0,2.1308116912841797,-0.021308109164237976,0.027216153219342232,-0.021308116614818573,7.450580596923828e-09,0.0,0.031263552606105804,0.23123137652873993,0.7168141896613731,0.20449303090572357,0.4387269914150238,0.23575657606124878,0.43452125787734985,3.191211462020874,0.9991116523742676,,,,,,,
4635640000.0,79.94,0.8600000143051147,12041169408.0,1242.7773278362322,228.0,0.007871055044233799,937984.0,2482.1889564990997,1.5116380369661897e-14,0.0,2.0629639625549316,-0.020629627630114555,0.0343586727976799,-0.02062963880598545,1.1175870895385742e-08,0.0,0.006618822924792767,0.2620883584022522,0.7829431237310737,0.1501232087612152,0.5482578277587891,0.15674203634262085,0.5625498294830322,3.2958438396453857,0.9990582466125488,,,,,,,
4635640000.0,81.22,0.7799999713897705,12041169408.0,1301.4861133101529,229.0,0.006165795959532261,942080.0,2485.3361279964447,1.4621984179008507e-14,0.0,2.1059165000915527,-0.021059172227978706,0.024245481938123703,-0.02105916477739811,-7.450580596923828e-09,0.0,0.004676017910242081,0.22018387913703918,0.8685140919761651,0.25531136989593506,0.5595664978027344,0.25998738408088684,0.6072198152542114,3.1471714973449707,0.9994306564331055,,,,,,,
4635640000.0,80.63,0.6299999952316284,12041169408.0,1287.8734905790361,230.0,0.0051419697701931,946176.0,2488.5165646076202,1.6705387073656652e-14,0.0,2.070563554763794,-0.020705625414848328,0.04159855842590332,-0.020705634728074074,9.313225746154785e-09,0.0,-0.03342906013131142,0.28653037548065186,0.8113887925716766,0.18844804167747498,0.5219002366065979,0.15501898527145386,0.6597614288330078,3.180436611175537,0.9991545677185059,,,,,,,
4635640000.0,76.24,0.7400000095367432,12041169408.0,1317.970688967903,231.0,0.009438518434762955,950272.0,2491.6243727207184,1.651109804434725e-14,0.0,2.039982318878174,-0.020399820059537888,0.020891018211841583,-0.020399821922183037,1.862645149230957e-09,0.0,0.016695335507392883,0.20374847948551178,0.8196144932497244,0.21249845623970032,0.44309917092323303,0.229193776845932,0.47972628474235535,3.1078081130981445,0.9987974166870117,,,,,,,
4635640000.0,77.5,0.7900000214576721,12041169408.0,1317.5281805165394,232.0,0.004123745486140251,954368.0,2494.733224630356,1.6374054889745082e-14,0.0,2.0659608840942383,-0.020659610629081726,0.039744697511196136,-0.020659608766436577,-1.862645149230957e-09,0.0,0.0009454106912016869,0.2819714844226837,0.6181903041766641,0.16388972103595734,0.4039331376552582,0.164835125207901,0.456332802772522,3.108851909637451,0.9992341995239258,,,,,,,
4635640000.0,77.68,0.6700000166893005,12041169408.0,1266.9610677893493,233.0,0.008257903158664703,958464.0,2497.966157436371,1.786938652603709e-14,0.0,2.0740365982055664,-0.020740361884236336,0.0178093109279871,-0.020740365609526634,3.725290298461914e-09,0.0,0.01331972423940897,0.1882813423871994,0.8591156855608646,0.2724698781967163,0.4470024108886719,0.2857895791530609,0.5016213059425354,3.2329328060150146,0.9991531372070312,,,,,,,
4635640000.0,80.28,0.9300000071525574,12041169408.0,1282.7889615393347,234.0,0.008778391405940056,962560.0,2501.159200191498,1.7577952982072986e-14,0.0,2.0467591285705566,-0.02046757936477661,0.025185629725456238,-0.020467590540647507,1.1175870895385742e-08,0.0,0.008736325427889824,0.22429271042346954,0.8932928113064604,0.24532994627952576,0.6035041213035583,0.25406625866889954,0.6866229176521301,3.193042755126953,0.9991660118103027,,,,,,,
4635640000.0,85.27,0.9700000286102295,12041169408.0,1288.2242349067035,235.0,0.0070632454007864,966656.0,2504.338770866394,1.716855824174246e-14,0.0,2.064953327178955,-0.020649537444114685,0.03408445790410042,-0.020649533718824387,-3.725290298461914e-09,0.0,0.000616779550909996,0.2611229121685028,0.7979966650929111,0.27439600229263306,0.4786947965621948,0.2750127911567688,0.5809860825538635,3.1795706748962402,0.9990992546081543,,,,,,,
4635640000.0,92.88,1.059999942779541,12041169408.0,1278.882202588394,236.0,0.006209282204508781,970752.0,2507.541567802429,1.651109804434725e-14,0.0,2.109888792037964,-0.021098891273140907,0.039672624319791794,-0.02109888754785061,-3.725290298461914e-09,0.0,0.011891749687492847,0.2814660966396332,0.7476296343967891,0.1599442958831787,0.5044307112693787,0.17183604836463928,0.5602823495864868,3.2027969360351562,0.9993135929107666,,,,,,,
4635640000.0,89.4,0.7599999904632568,12041169408.0,1315.3096149099365,237.0,0.0065602026879787445,974848.0,2510.6556634902954,1.6433035487928294e-14,0.0,2.1060569286346436,-0.02106056921184063,0.03551968187093735,-0.02106056921184063,0.0,0.0,-0.00858732033520937,0.2664262652397156,0.8544557669957772,0.2501479983329773,0.601603090763092,0.2415606826543808,0.6983602643013,3.114095687866211,0.9991323947906494,,,,,,,
4635640000.0,91.7,0.8700000047683716,12041169408.0,1258.4940154051683,238.0,0.007947394624352455,978944.0,2513.910347223282,1.6715795414512513e-14,0.0,2.0749564170837402,-0.02074955217540264,0.035007867962121964,-0.020749563351273537,1.1175870895385742e-08,0.0,-0.008245177567005157,0.2645086646080017,0.8750811287812907,0.24455001950263977,0.6607497930526733,0.23630483448505402,0.7483863830566406,3.25468373298645,0.9991300106048584,,,,,,,
4635640000.0,89.78,0.8999999761581421,12041169408.0,1276.3401643311618,239.0,0.007263302803039551,983040.0,2517.119523048401,1.6165888072627865e-14,0.0,2.1247801780700684,-0.021247778087854385,0.04963498190045357,-0.021247800439596176,2.2817403078079224e-08,0.0,-0.0010137794306501746,0.31510820984840393,0.7720567140192909,0.27937620878219604,0.608791172504425,0.2783624231815338,0.6600036025047302,3.2091758251190186,0.9989361763000488,,,,,,,
4635640000.0,89.28,0.9100000262260437,12041169408.0,1282.4191524115263,240.0,0.006058681756258011,987136.0,2520.3134865760803,1.635844237846129e-14,0.0,2.0657448768615723,-0.02065744251012802,0.02711319550871849,-0.02065744809806347,4.6566128730773926e-09,0.0,-0.012808818370103836,0.23254147171974182,0.8645934269137159,0.24640461802482605,0.5317621827125549,0.23359577357769012,0.6319468021392822,3.1939635276794434,0.9990885257720947,,,,,,,
4635640000.0,87.59,0.8600000143051147,12041169408.0,1308.9486969727932,241.0,0.0074469950050115585,991232.0,2523.442715406418,1.5914353168611228e-14,0.0,2.0930914878845215,-0.020930923521518707,0.03379098325967789,-0.02093091420829296,-8.381903171539307e-09,0.0,-0.03459750860929489,0.25768426060676575,0.8682669285525447,0.31623637676239014,0.6229973435401917,0.28163886070251465,0.7099708914756775,3.1292288303375244,0.9998550415039062,,,,,,,
4635640000.0,84.08,0.9399999976158142,12041169408.0,1298.992183379775,242.0,0.008320271968841553,995328.0,2526.595929145813,1.6393136847980827e-14,0.0,2.125220775604248,-0.021252207458019257,0.027917038649320602,-0.021252207458019257,-9.313225746154785e-10,0.0,0.011293556541204453,0.23605112731456757,0.8865476863416984,0.2934425473213196,0.6562877893447876,0.30473610758781433,0.700808584690094,3.1532137393951416,0.9987936019897461,,,,,,,
4635640000.0,87.66,0.8899999856948853,12041169408.0,1256.7258154515544,243.0,0.006589874159544706,999424.0,2529.8551921844482,1.71355984956989e-14,0.0,2.0905542373657227,-0.020905518904328346,0.03210923448204994,-0.020905541256070137,2.2351741790771484e-08,0.0,-0.04202999919652939,0.2499343901872635,0.9030761268544797,0.25617438554763794,0.6732090711593628,0.21414439380168915,0.8028059601783752,3.259263038635254,0.9992043972015381,,,,,,,
4635640000.0,85.44,0.7699999809265137,12041169408.0,1231.8323375946118,244.0,0.0064221834763884544,1003520.0,2533.1803200244904,1.5057399771478686e-14,0.0,2.175192356109619,-0.021751929074525833,0.04740477725863457,-0.021751923486590385,-5.3551048040390015e-09,0.0,-0.032643843442201614,0.3062136769294739,0.7924228379408704,0.29367583990097046,0.5830004811286926,0.26103201508522034,0.6721013784408569,3.3251278400421143,0.9997305870056152,,,,,,,
4635640000.0,84.14,0.9300000071525574,12041169408.0,1273.7733616669743,245.0,0.010597020387649536,1007616.0,2536.395962715149,1.5992415725030185e-14,0.0,2.1240291595458984,-0.02124028652906418,0.02636653743684292,-0.021240290254354477,3.725290298461914e-09,0.0,0.007019899785518646,0.22955754399299622,0.8468539874525729,0.3350866138935089,0.5611533522605896,0.34210652112960815,0.5865954756736755,3.2156426906585693,0.9994981288909912,,,,,,,
4635640000.0,86.77,1.1799999475479126,12041169408.0,1279.5793580976278,246.0,0.010601202957332134,1011712.0,2539.5970146656036,1.4455450725314734e-14,0.0,2.1849591732025146,-0.021849587559700012,0.03371821716427803,-0.02184959128499031,2.7939677238464355e-09,0.0,-0.02931974269449711,0.25805628299713135,0.8823968212134939,0.3797776699066162,0.7134194374084473,0.35045796632766724,0.7524972558021545,3.201051950454712,0.9996707439422607,,,,,,,
4635640000.0,89.67,0.9599999785423279,12041169408.0,1252.6374806716492,247.0,0.005390190985053778,1015808.0,2542.8669152259827,1.5524040386516447e-14,0.0,2.174710512161255,-0.021747108548879623,0.04450570046901703,-0.021747104823589325,-3.725290298461914e-09,0.0,-0.010421213693916798,0.29820212721824646,0.8907346555115508,0.26781755685806274,0.8028398156166077,0.2573963403701782,0.9021307826042175,3.2699005603790283,0.999556303024292,,,,,,,
4635640000.0,91.25,1.0099999904632568,12041169408.0,1277.0909389336255,248.0,0.009224047884345055,1019904.0,2546.0742044448853,1.539740557277014e-14,0.0,2.1857528686523438,-0.02185753546655178,0.020298203453421593,-0.021857528015971184,-7.450580596923828e-09,0.0,0.037682414054870605,0.19795456528663635,0.902512367044965,0.2975575625896454,0.5909507274627686,0.3352400064468384,0.634002149105072,3.207289218902588,1.0024023056030273,,,,,,,
4635640000.0,99.45,1.0700000524520874,12041169408.0,1247.1543491572388,249.0,0.006443377584218979,1024000.0,2549.358481168747,1.4982806662011683e-14,0.0,2.1343801021575928,-0.02134379744529724,0.05795130878686905,-0.02134380117058754,3.725290298461914e-09,0.0,-0.03317881003022194,0.3388654887676239,0.8292321326488925,0.2226019650697708,0.7676470279693604,0.18942314386367798,0.8200196027755737,3.2842767238616943,0.998786211013794,,,,,,,
4635640000.0,92.2,1.0199999809265137,12041169408.0,1262.2199829606352,250.0,0.00784143153578043,1028096.0,2552.6035573482513,1.5557000132560006e-14,0.0,2.1411664485931396,-0.021411661058664322,0.04751928523182869,-0.02141166478395462,3.725290298461914e-09,0.0,-0.03189622238278389,0.30666622519493103,0.7611287561641582,0.26728859543800354,0.5523434281349182,0.23539237678050995,0.6274570226669312,3.2450761795043945,0.9993674755096436,,,,,,,
4635640000.0,91.84,0.7599999904632568,12041169408.0,1286.1274440724944,251.0,0.0024417629465460777,1032192.0,2555.7883117198944,1.8903281717719267e-14,0.0,2.073394298553467,-0.020733928307890892,0.0855807289481163,-0.020733943209052086,1.4901161193847656e-08,0.0,-0.07173898816108704,0.4074991047382355,0.738329689773987,0.18227747082710266,0.7283810377120972,0.11053849011659622,0.796616792678833,3.1847543716430664,0.9992420673370361,,,,,,,
4635640000.0,96.58,0.8199999928474426,12041169408.0,1280.7606064261274,252.0,0.005936063826084137,1036288.0,2558.986411333084,1.7095699855751434e-14,0.0,2.114750862121582,-0.021147502586245537,0.052328336983919144,-0.021147508174180984,5.587935447692871e-09,0.0,-0.03185461089015007,0.3219740390777588,0.6929848598381494,0.3353504538536072,0.4681086242198944,0.3034958243370056,0.5810866951942444,3.1980996131896973,0.9997828006744385,,,,,,,
4635640000.0,89.37,0.7200000286102295,12041169408.0,1263.1071661217668,253.0,0.003841969184577465,1040384.0,2562.2292082309723,1.726049858596923e-14,0.0,2.0737550258636475,-0.0207375455647707,0.07252237200737,-0.020737549290060997,3.725290298461914e-09,0.0,-0.04604637995362282,0.3780996799468994,0.7543292355209047,0.2055392563343048,0.639610230922699,0.1594928801059723,0.7628331780433655,3.2427968978881836,0.9990603923797607,,,,,,,
4635640000.0,85.8,0.4699999988079071,12041169408.0,1279.618148311405,254.0,0.005767582915723324,1044480.0,2565.4301631450653,1.728304999115693e-14,0.0,2.0900115966796875,-0.02090010792016983,0.044074516743421555,-0.020900115370750427,7.450580596923828e-09,0.0,-0.018362201750278473,0.2963668406009674,0.7106177710128997,0.2505210041999817,0.444364070892334,0.23215879499912262,0.5509265661239624,3.2009549140930176,0.998997688293457,,,,,,,
4635640000.0,86.12,0.6899999976158142,12041169408.0,1323.5407916375004,255.0,0.00682254321873188,1048576.0,2568.524892091751,1.7093965132275457e-14,0.0,2.0986220836639404,-0.020986219868063927,0.05627065524458885,-0.020986219868063927,0.0,0.0,0.002541717141866684,0.33550310134887695,0.7909045207695862,0.08860123157501221,0.6836566925048828,0.09114295244216919,0.7337095737457275,3.094728946685791,0.9992547035217285,,,,,,,
