CpuMaxMemory,EpLenMean,EpRewMean,GpuMaxMemory,IPS_total,Iter,Misc/FrameRewMean,Misc/InteractCount,Misc/TimeElapsed,Opt/approxkl,Opt/clipfrac,Opt/entropy,Opt/loss_pi,Opt/loss_vf,Opt/negent,Opt/pg,Opt/pi_kl,VFStats/AdvMean,VFStats/AdvStd,VFStats/EV,VFStats/VpredMean,VFStats/VpredStd,VFStats/VtargMean,VFStats/VtargStd,del_time,wait_optimization,scaled/pol_distance,scaled/vf_aux,scaled/vf_true,unscaled/pol_distance,unscaled/vf_aux,unscaled/vf_true,EvalEpMean
3035636000.0,80.38461538461539,-4.051281929016113,11965495808.0,1677.6372266433866,0.0,-0.018967723473906517,4096.0,2.4415290355682373,2.886579864025407e-15,0.0,2.7075986862182617,-0.0270759928971529,0.18002139031887054,-0.027075985446572304,-7.450580596923828e-09,0.0,-0.26545703411102295,0.5381877422332764,0.0015147261835948278,0.024031713604927063,0.01653527282178402,-0.2414253056049347,0.5385958552360535,2.4415290355682373,1.0249905586242676,,,,,,,
3086588000.0,86.01149425287356,-3.4137930870056152,12031147008.0,1765.9248921138108,1.0,-0.012999100610613823,8192.0,4.760993480682373,2.5118795932144167e-15,0.0,2.707146167755127,-0.02707146853208542,0.13798189163208008,-0.027071461081504822,-7.450580596923828e-09,0.0,-0.13226217031478882,0.5084620118141174,0.011596130952508665,-0.24217373132705688,0.033470381051301956,-0.3744358718395233,0.5114359855651855,2.3194644451141357,0.9970455169677734,,,,,,,
3135952000.0,86.61,-2.700000047683716,12031147008.0,1806.0952904392598,2.0,-0.014068366028368473,12288.0,7.028869390487671,2.914335439641036e-15,0.0,2.7048263549804688,-0.027048267424106598,0.16970069706439972,-0.0270482636988163,-3.725290298461914e-09,0.0,-0.05454900860786438,0.5800930261611938,0.001294688843490266,-0.601391077041626,0.09001071751117706,-0.655940055847168,0.5804688930511475,2.267875909805298,0.9970250129699707,,,,,,,
3185056000.0,86.59,-2.8499999046325684,12031147008.0,1751.4483389149705,3.0,-0.01817004382610321,16384.0,9.367505311965942,3.1225022567582528e-15,0.0,2.702481746673584,-0.02702481858432293,0.26411131024360657,-0.02702481672167778,-1.862645149230957e-09,0.0,-0.027121365070343018,0.7263717651367188,0.03513882372134558,-1.1487739086151123,0.1931377649307251,-1.1758952140808105,0.739480197429657,2.3386359214782715,0.996809720993042,,,,,,,
3234424000.0,84.1,-3.2899999618530273,12031147008.0,1742.2418872821763,4.0,-0.018569335341453552,20480.0,11.718499183654785,3.4208746946262636e-15,0.0,2.6996331214904785,-0.026996327564120293,0.3604635000228882,-0.02699633128941059,3.725290298461914e-09,0.0,0.17783473432064056,0.8303434252738953,0.1518663600026896,-1.9599862098693848,0.37115243077278137,-1.7821513414382935,0.9016241431236267,2.3509938716888428,0.9967687129974365,,,,,,,
3283528000.0,82.44,-2.8399999141693115,12031147008.0,1783.8111554667635,5.0,-0.011332959868013859,24576.0,14.014706373214722,3.5110803153770576e-15,0.0,2.6952216625213623,-0.02695222571492195,0.22476623952388763,-0.026952216401696205,-9.313225746154785e-09,0.0,0.13525506854057312,0.656767725944519,0.15518092606416056,-1.4353934526443481,0.3020942807197571,-1.300138235092163,0.7145453691482544,2.2962071895599365,0.9968929290771484,,,,,,,
3332632000.0,86.93,-1.940000057220459,12031147008.0,1809.6018102054525,6.0,-0.010173903778195381,28672.0,16.27818775177002,3.406996906818449e-15,0.0,2.6957509517669678,-0.026957497000694275,0.1825520098209381,-0.02695750817656517,1.1175870895385742e-08,0.0,0.07815949618816376,0.5992351770401001,0.16078461093871743,-1.0214581489562988,0.2336297333240509,-0.9432986974716187,0.6541246771812439,2.263481378555298,0.9967741966247559,,,,,,,
3382000000.0,80.28,-2.390000104904175,12031147008.0,1778.9246954111884,7.0,-0.017376136034727097,32768.0,18.580702304840088,3.462508058049707e-15,0.0,2.695327043533325,-0.026953261345624924,0.21443122625350952,-0.02695327065885067,1.0244548320770264e-08,0.0,-0.08415782451629639,0.6495251059532166,0.0831058207554608,-0.6608031392097473,0.18182457983493805,-0.7449610233306885,0.6783227324485779,2.3025145530700684,0.9968893527984619,,,,,,,
3431104000.0,77.31,-2.3499999046325684,12031147008.0,1805.843744764012,8.0,-0.00874999351799488,36864.0,20.848894119262695,3.58046925441613e-15,0.0,2.691394329071045,-0.026913946494460106,0.13576152920722961,-0.026913942769169807,-3.725290298461914e-09,0.0,-0.01215097215026617,0.5210006237030029,0.13718651981566765,-0.4935929775238037,0.17403440177440643,-0.5057439804077148,0.5608927011489868,2.2681918144226074,0.9966588020324707,,,,,,,
3480472000.0,74.82,-2.0399999618530273,12031147008.0,1763.5470995896385,9.0,-0.01675073243677616,40960.0,23.171485900878906,3.920475055707584e-15,0.0,2.6856393814086914,-0.026856400072574615,0.1952161192893982,-0.02685639262199402,-6.51925802230835e-09,0.0,-0.12419867515563965,0.6124528646469116,0.1076533570751218,-0.43982988595962524,0.15224452316761017,-0.5640285611152649,0.6483445763587952,2.322591781616211,0.9967446327209473,,,,,,,
3529576000.0,70.2,-2.2799999713897705,12031147008.0,1762.9618378452708,10.0,-0.011314338073134422,45056.0,25.49484872817993,5.342948306008566e-15,0.0,2.667797803878784,-0.026677988469600677,0.11687655001878738,-0.026677977293729782,-1.1175870895385742e-08,0.0,-0.04958803206682205,0.4809891879558563,0.1334604617904015,-0.379865825176239,0.16488230228424072,-0.42945384979248047,0.5167032480239868,2.3233628273010254,0.9970743656158447,,,,,,,
3578680000.0,74.14,-2.450000047683716,12031147008.0,1784.0123224476254,11.0,-0.019557077437639236,49152.0,27.790796995162964,6.4063337967823486e-15,0.0,2.647843360900879,-0.026478439569473267,0.22500333189964294,-0.02647843211889267,-7.450580596923828e-09,0.0,-0.18042133748531342,0.646186351776123,0.12814638185103921,-0.3631012439727783,0.1758800894021988,-0.5435225963592529,0.6920475959777832,2.2959482669830322,0.9968457221984863,,,,,,,
3628048000.0,74.55,-2.7100000381469727,12031147008.0,1810.353317060402,12.0,-0.012620808556675911,53248.0,30.053338766098022,6.000408503403776e-15,0.0,2.619509696960449,-0.0261950995773077,0.16187617182731628,-0.026195095852017403,-3.725290298461914e-09,0.0,-0.08328834176063538,0.5629323124885559,0.13485760913987066,-0.398051917552948,0.20662805438041687,-0.481340229511261,0.6052187085151672,2.2625417709350586,0.996906042098999,,,,,,,
3677152000.0,72.22,-1.8799999952316284,12031147008.0,1755.625779486409,13.0,-0.013105051591992378,57344.0,32.38640999794006,6.09061412415457e-15,0.0,2.5758285522460938,-0.025758301839232445,0.14618435502052307,-0.0257582850754261,-1.6298145055770874e-08,0.0,-0.07514850050210953,0.5355290770530701,0.20609311393724594,-0.448378324508667,0.23774312436580658,-0.5235268473625183,0.6010329723358154,2.333071231842041,0.9970920085906982,,,,,,,
3726256000.0,69.61,-2.0,12031147008.0,1806.3123404876324,14.0,-0.012469757348299026,61440.0,34.65401339530945,5.632647126496693e-15,0.0,2.498025894165039,-0.02498026192188263,0.161417618393898,-0.02498025819659233,-3.725290298461914e-09,0.0,-0.03027912601828575,0.5674477815628052,0.17655226160339488,-0.5261444449424744,0.2966056764125824,-0.556423544883728,0.625328004360199,2.2676033973693848,0.9967732429504395,,,,,,,
3775624000.0,73.6,-2.130000114440918,12031147008.0,1813.2230119805558,15.0,-0.013062545098364353,65536.0,36.91297435760498,6.310924005603624e-15,0.0,2.399394989013672,-0.023993944749236107,0.13925930857658386,-0.023993948474526405,3.725290298461914e-09,0.0,-0.014901083894073963,0.5276026129722595,0.3516701492206429,-0.6840195655822754,0.3546763062477112,-0.6989206075668335,0.6552528142929077,2.2589609622955322,0.9967186450958252,,,,,,,
3824728000.0,76.36,-1.5099999904632568,12031147008.0,1732.6052554613786,16.0,-0.007289469707757235,69632.0,39.27704429626465,6.727257639838058e-15,0.0,2.341259479522705,-0.023412585258483887,0.1375252604484558,-0.023412594571709633,9.313225746154785e-09,0.0,0.06535637378692627,0.5204278826713562,0.2639196447636202,-0.7281671166419983,0.36901453137397766,-0.6628106832504272,0.6065937280654907,2.364069938659668,0.997157096862793,,,,,,,
3874096000.0,72.75,-1.559999942779541,12031147008.0,1749.9725669848353,17.0,-0.012426824308931828,73728.0,41.61765241622925,6.392456008974534e-15,0.0,2.417872905731201,-0.024178722873330116,0.15036210417747498,-0.024178728461265564,5.587935447692871e-09,0.0,0.04301607608795166,0.5467603206634521,0.3884909327141274,-0.8020803928375244,0.42125195264816284,-0.7590643167495728,0.6991903781890869,2.3406081199645996,0.9968891143798828,,,,,,,
3923200000.0,69.64,-2.6600000858306885,12031147008.0,1763.8987329607419,18.0,-0.023434635251760483,77824.0,43.939781188964844,5.478256737134757e-15,0.0,2.5453391075134277,-0.025453390553593636,0.25412315130233765,-0.025453390553593636,0.0,0.0,-0.09066753089427948,0.7072113156318665,0.29765198854713804,-0.925620436668396,0.41745254397392273,-1.0162880420684814,0.8438652753829956,2.3221287727355957,0.9971280097961426,,,,,,,
3972304000.0,69.61,-2.5199999809265137,12031147008.0,1800.6557438630502,19.0,-0.009938317351043224,81920.0,46.214508056640625,5.564992910933597e-15,0.0,2.557673692703247,-0.02557673677802086,0.1658526360988617,-0.02557673677802086,0.0,0.0,0.07711382210254669,0.5708224773406982,0.43551313951233983,-0.9574954509735107,0.48802563548088074,-0.8803815841674805,0.7597559690475464,2.2747268676757812,0.9969320297241211,,,,,,,
4021672000.0,73.08,-1.7400000095367432,12031147008.0,1745.769797261539,20.0,-0.011945020407438278,86016.0,48.56075096130371,5.538972058793945e-15,0.0,2.5867836475372314,-0.02586783468723297,0.1938060075044632,-0.02586783654987812,2.7939677238464355e-09,0.0,0.08819372951984406,0.6163818836212158,0.3598207414243282,-1.0573809146881104,0.5140596032142639,-0.9691871404647827,0.7703694701194763,2.346242904663086,0.9973704814910889,,,,,,,
4070776000.0,74.18,-1.9900000095367432,12031147008.0,1767.5389902213608,21.0,-0.016991525888442993,90112.0,50.87809729576111,6.22071838485283e-15,0.0,2.618030548095703,-0.02618030458688736,0.22581930458545685,-0.02618030458688736,0.0,0.0,0.024405905976891518,0.6716793179512024,0.2749742982061576,-0.9953961372375488,0.47049808502197266,-0.9709902405738831,0.7888333797454834,2.3173463344573975,0.9967577457427979,,,,,,,
4120408000.0,75.57,-2.380000114440918,12031147008.0,1779.3746314346427,22.0,-0.01409024465829134,94208.0,53.18002963066101,6.132247487578013e-15,0.0,2.6076512336730957,-0.026076506823301315,0.1715666502714157,-0.026076512411236763,4.6566128730773926e-09,0.0,-0.018112070858478546,0.5855672359466553,0.39574227123811134,-0.7774083614349365,0.43028897047042847,-0.7955204248428345,0.7532960176467896,2.3019323348999023,0.9969344139099121,,,,,,,
4170304000.0,78.17,-2.299999952316284,12031147008.0,1733.293284738872,23.0,-0.012646704912185669,98304.0,55.543161153793335,6.316128176031555e-15,0.0,2.5938987731933594,-0.025938991457223892,0.19947756826877594,-0.025938987731933594,-2.7939677238464355e-09,0.0,0.0201193168759346,0.6313855648040771,0.29440384504947825,-0.7938423156738281,0.40360555052757263,-0.7737230062484741,0.7516515851020813,2.363131523132324,0.9970302581787109,,,,,,,
4219672000.0,75.51,-1.940000057220459,12031147008.0,1738.2148725144248,24.0,-0.01440834067761898,102400.0,57.89960169792175,6.781034067593339e-15,0.0,2.5862598419189453,-0.025862591341137886,0.18143823742866516,-0.025862596929073334,5.122274160385132e-09,0.0,-0.015209222212433815,0.6022738218307495,0.27098673874373214,-0.68376624584198,0.36344465613365173,-0.6989754438400269,0.7053850293159485,2.356440544128418,0.9964895248413086,,,,,,,
4269264000.0,69.96,-1.7300000190734863,12031147008.0,1750.9305006771913,25.0,-0.00891925860196352,106496.0,60.238929271698,6.79664657887713e-15,0.0,2.584000825881958,-0.025840003043413162,0.12819144129753113,-0.02584000676870346,3.725290298461914e-09,0.0,0.05842701345682144,0.5030218362808228,0.3423854879566779,-0.6296044588088989,0.34175199270248413,-0.5711774230003357,0.6202990412712097,2.339327573776245,0.9975497722625732,,,,,,,
4318708000.0,71.77,-1.350000023841858,12031147008.0,1809.0794983820304,26.0,-0.0105542978271842,110592.0,62.50306415557861,6.37857822116672e-15,0.0,2.5855674743652344,-0.025855684652924538,0.16605345904827118,-0.025855673477053642,-1.1175870895385742e-08,0.0,-0.0230017751455307,0.5758982300758362,0.37332949408166605,-0.5927934646606445,0.3435742259025574,-0.6157951951026917,0.7274885177612305,2.2641348838806152,0.9966974258422852,,,,,,,
4368364000.0,72.83,-1.5099999904632568,12031147008.0,1782.97640848944,27.0,-0.013193831779062748,114688.0,64.80034637451172,7.060324547225605e-15,0.0,2.5808157920837402,-0.025808168575167656,0.15191501379013062,-0.02580815739929676,-1.1175870895385742e-08,0.0,0.01421284768730402,0.5510917901992798,0.21380740193955616,-0.6536714434623718,0.33273380994796753,-0.6394585371017456,0.6215262413024902,2.2972822189331055,0.9968271255493164,,,,,,,
4417732000.0,70.53,-2.5199999809265137,12031147008.0,1807.8036663968621,28.0,-0.021065112203359604,118784.0,67.06607913970947,6.980527267330672e-15,0.0,2.5728540420532227,-0.025728538632392883,0.2065199315547943,-0.025728540495038033,9.313225746154785e-10,0.0,-0.12134658545255661,0.6311990022659302,0.22769033633990754,-0.5382398366928101,0.3132034242153168,-0.6595864295959473,0.7182415723800659,2.265732765197754,0.9969527721405029,,,,,,,
4467364000.0,72.77,-2.859999895095825,12031147008.0,1761.5182623053959,29.0,-0.01683557964861393,122880.0,69.3913459777832,7.011752289898254e-15,0.0,2.554523468017578,-0.025545237585902214,0.19449949264526367,-0.025545233860611916,-4.190951585769653e-09,0.0,-0.07817117124795914,0.6188551783561707,0.27785495886915434,-0.5670940279960632,0.3439252972602844,-0.6452652215957642,0.728243887424469,2.3252668380737305,0.9969229698181152,,,,,,,
4516728000.0,73.89,-1.7000000476837158,12031147008.0,1732.5386840612994,30.0,-0.0067217666655778885,126976.0,71.75550675392151,6.673481212082777e-15,0.0,2.5226898193359375,-0.025226905941963196,0.12598760426044464,-0.0252268984913826,-7.450580596923828e-09,0.0,0.04307707026600838,0.5001806020736694,0.367393390559426,-0.5194134712219238,0.3399849832057953,-0.47633641958236694,0.6288687586784363,2.3641607761383057,0.9967851638793945,,,,,,,
4566096000.0,73.47,-1.590000033378601,12031147008.0,1806.413002571477,31.0,-0.016727669164538383,131072.0,74.02298378944397,8.427286646295329e-15,0.0,2.497201442718506,-0.02497200109064579,0.1708841323852539,-0.024972014129161835,1.30385160446167e-08,0.0,-0.06077340245246887,0.5815130472183228,0.3453010297569794,-0.6235446929931641,0.37739297747612,-0.6843181252479553,0.7186850905418396,2.267477035522461,0.9968185424804688,,,,,,,
,,,,,,,,,,,,,,,,,,,,,,,,,,0.008014959283173084,0.2382931113243103,0.22328360378742218,0.008014959283173084,0.2382931113243103,0.22328360378742218,
,,,,,,,,,,,,,,,,,,,,,,,,,,0.0034678936935961246,0.19273392856121063,0.18594297766685486,0.0034678936935961246,0.19273392856121063,0.18594297766685486,
,,,,,,,,,,,,,,,,,,,,,,,,,,0.00342914299108088,0.18327921628952026,0.19004236161708832,0.00342914299108088,0.18327921628952026,0.19004236161708832,
,,,,,,,,,,,,,,,,,,,,,,,,,,0.0020336094312369823,0.17229650914669037,0.1714262217283249,0.0020336094312369823,0.17229650914669037,0.1714262217283249,
,,,,,,,,,,,,,,,,,,,,,,,,,,0.0010221366537734866,0.16645018756389618,0.1658458113670349,0.0010221366537734866,0.16645018756389618,0.1658458113670349,
,,,,,,,,,,,,,,,,,,,,,,,,,,0.0019176414934918284,0.16735392808914185,0.16760094463825226,0.0019176414934918284,0.16735392808914185,0.16760094463825226,
,,,,,,,,,,,,,,,,,,,,,,,,,,,,,,,,-1.53
4585188000.0,73.87,-1.7100000381469727,11990518784.0,16.979407665295334,32.0,-0.008270533755421638,135168.0,315.2563695907593,5.254477408733749e-15,0.0,2.438274621963501,-0.024382755160331726,0.11881251633167267,-0.02438274584710598,-1.0244548320770264e-08,0.0,0.0807199627161026,0.4807969927787781,0.5526135502539385,-0.6909643411636353,0.5196640491485596,-0.6102443337440491,0.718820333480835,241.2333858013153,0.9969613552093506,,,,,,,
4585188000.0,73.84,-1.7999999523162842,12041169408.0,1794.2437115352159,33.0,-0.01682940497994423,139264.0,317.5392255783081,5.620504062164855e-15,0.0,2.407942056655884,-0.024079425260424614,0.12660473585128784,-0.024079419672489166,-5.587935447692871e-09,0.0,0.006653089076280594,0.5032166242599487,0.6237623378843671,-0.7163466215133667,0.5477608442306519,-0.7096935510635376,0.8203967213630676,2.282855987548828,0.9968700408935547,,,,,,,
4585188000.0,74.32,-2.0299999713897705,12041169408.0,1731.4719683841695,34.0,-0.01206502690911293,143360.0,319.90484285354614,5.134781488891349e-15,0.0,2.372103214263916,-0.023721031844615936,0.13767021894454956,-0.023721031844615936,0.0,0.0,0.06544522941112518,0.5206952095031738,0.5380938624504882,-0.7632584571838379,0.5579320788383484,-0.6978132724761963,0.7661375999450684,2.365617275238037,0.9982120990753174,,,,,,,
4585188000.0,76.09,-1.9299999475479126,12041169408.0,1822.5798553318875,35.0,-0.013630259782075882,147456.0,322.152206659317,5.384581669432009e-15,0.0,2.342613697052002,-0.023426126688718796,0.10829532146453857,-0.023426136001944542,9.313225746154785e-09,0.0,0.017492244020104408,0.46512091159820557,0.6561861001708733,-0.6373841762542725,0.5774320960044861,-0.6198919415473938,0.793239176273346,2.247363805770874,0.9969301223754883,,,,,,,
4585188000.0,76.57,-1.7000000476837158,12041169408.0,1769.5953986049137,36.0,-0.00887321401387453,151552.0,324.46686005592346,5.478256737134757e-15,0.0,2.31388258934021,-0.023138822987675667,0.1132369413971901,-0.023138824850320816,2.2118911147117615e-09,0.0,0.13540078699588776,0.4562798738479614,0.6457248258514952,-0.7735402584075928,0.6455431580543518,-0.6381394863128662,0.7665861248970032,2.3146533966064453,0.9969823360443115,,,,,,,
4585188000.0,74.35,-1.3300000429153442,12041169408.0,1780.5139385869327,37.0,-0.011198990046977997,155648.0,326.7673194408417,5.990000162547915e-15,0.0,2.2979578971862793,-0.022979583591222763,0.10114514082670212,-0.022979578003287315,-6.51925802230835e-09,0.0,0.05148252099752426,0.4468652904033661,0.6606793895960572,-0.6205106973648071,0.5779674053192139,-0.5690282583236694,0.767134428024292,2.300459384918213,0.9970459938049316,,,,,,,
4585188000.0,70.91,-1.75,12041169408.0,1781.3474891052351,38.0,-0.014405066147446632,159744.0,329.06670236587524,5.814793091474257e-15,0.0,2.255685806274414,-0.022556858137249947,0.12748531997203827,-0.022556858137249947,0.0,0.0,0.05635228753089905,0.5018531084060669,0.6169233266800711,-0.6851276159286499,0.6067501306533813,-0.6287753582000732,0.81083744764328,2.2993829250335693,0.9968540668487549,,,,,,,
4585188000.0,75.76,-1.4900000095367432,12041169408.0,1807.3365782881467,39.0,-0.006910777650773525,163840.0,331.33302068710327,6.354292092503044e-15,0.0,2.227752685546875,-0.022277534008026123,0.08196137845516205,-0.022277526557445526,-7.450580596923828e-09,0.0,0.07861661911010742,0.39721620082855225,0.6260028670259099,-0.4933534264564514,0.5158027410507202,-0.414736807346344,0.6495204567909241,2.2663183212280273,0.9969117641448975,,,,,,,
4585188000.0,77.81,-1.309999942779541,12041169408.0,1804.0189589345243,40.0,-0.008869417943060398,167936.0,333.6035068035126,6.543376951384516e-15,0.0,2.1918232440948486,-0.02191823162138462,0.07894326746463776,-0.02191823162138462,0.0,0.0,0.050558820366859436,0.39416784048080444,0.646505398981782,-0.4565739333629608,0.5322186946868896,-0.4060150980949402,0.6629636883735657,2.2704861164093018,0.9969816207885742,,,,,,,
4585188000.0,74.43,-1.1399999856948853,12041169408.0,1806.3406386945294,41.0,-0.00878135859966278,172032.0,335.8710746765137,5.9310195643647035e-15,0.0,2.225238800048828,-0.022252388298511505,0.08451155573129654,-0.022252388298511505,0.0,0.0,0.030738428235054016,0.4100235402584076,0.6269493584584948,-0.34359318017959595,0.4850103259086609,-0.3128547668457031,0.6713127493858337,2.2675678730010986,0.9969911575317383,,,,,,,
4585188000.0,71.86,-1.3899999856948853,12041169408.0,1780.1150704984816,42.0,-0.011003585532307625,176128.0,338.1720495223999,6.323067069935462e-15,0.0,2.21276593208313,-0.022127648815512657,0.10444118082523346,-0.022127658128738403,9.313225746154785e-09,0.0,0.04412864148616791,0.45495665073394775,0.5246542206334476,-0.44176435470581055,0.49379056692123413,-0.39763572812080383,0.6598803997039795,2.3009748458862305,0.9973886013031006,,,,,,,
4585188000.0,72.79,-1.899999976158142,12041169408.0,1806.7521074114945,43.0,-0.015426546335220337,180224.0,340.43910098075867,6.189493362285248e-15,0.0,2.2744383811950684,-0.022744394838809967,0.1235751211643219,-0.02274438366293907,-1.1175870895385742e-08,0.0,-0.07049104571342468,0.4921792447566986,0.562861372818062,-0.33531808853149414,0.5095258951187134,-0.4058091640472412,0.7444126009941101,2.2670514583587646,0.9968655109405518,,,,,,,
4585188000.0,72.88,-2.0399999618530273,12041169408.0,1784.5213700658076,44.0,-0.01364540122449398,184320.0,342.7343943119049,5.9396931817445875e-15,0.0,2.271437883377075,-0.022714363411068916,0.1020784080028534,-0.02271437831223011,1.4901161193847656e-08,0.0,-0.013954296708106995,0.45167675614356995,0.584214876711811,-0.38857409358024597,0.5113553404808044,-0.4025283753871918,0.7004759907722473,2.2952933311462402,0.9969215393066406,,,,,,,
4585188000.0,71.19,-2.0199999809265137,12041169408.0,1788.0517252540812,45.0,-0.014331739395856857,188416.0,345.0251557826996,5.738465258531278e-15,0.0,2.3127312660217285,-0.02312728390097618,0.10302196443080902,-0.02312731184065342,2.7939677238464355e-08,0.0,-0.06497158110141754,0.449301540851593,0.5922636557018284,-0.33991387486457825,0.5007489323616028,-0.404885470867157,0.7036363482475281,2.2907614707946777,0.9971542358398438,,,,,,,
4585188000.0,71.54,-2.200000047683716,12041169408.0,1782.0293095226957,46.0,-0.017466869205236435,192512.0,347.32365894317627,6.189493362285248e-15,0.0,2.345705032348633,-0.023457052186131477,0.11136151850223541,-0.023457050323486328,-1.862645149230957e-09,0.0,-0.06015224754810333,0.46814340353012085,0.5952878624134699,-0.3817141652107239,0.5666795372962952,-0.441866397857666,0.7358779907226562,2.2985031604766846,0.9970917701721191,,,,,,,
4585188000.0,68.31,-2.0199999809265137,12041169408.0,1770.218453008946,47.0,-0.012279973365366459,196608.0,349.6374976634979,5.466113672802919e-15,0.0,2.367680311203003,-0.023676808923482895,0.10852988064289093,-0.023676803335547447,-5.587935447692871e-09,0.0,0.007411137223243713,0.4658946394920349,0.5954921862386198,-0.3825918734073639,0.5544059872627258,-0.37518075108528137,0.7325280904769897,2.3138387203216553,0.9970800876617432,,,,,,,
4585188000.0,68.99,-1.7699999809265137,12041169408.0,1820.4571760149656,48.0,-0.013989638537168503,200704.0,351.8874819278717,5.532033164890038e-15,0.0,2.3987507820129395,-0.023987503722310066,0.12193671613931656,-0.023987507447600365,3.725290298461914e-09,0.0,0.006045413203537464,0.4938587248325348,0.5842109619132267,-0.43167367577552795,0.6102594137191772,-0.4256282448768616,0.7658896446228027,2.2499842643737793,0.9968841075897217,,,,,,,
4585324000.0,74.23,-1.8700000047683716,12041169408.0,1768.0859885013845,49.0,-0.012312939390540123,204800.0,354.20411133766174,5.171210681886862e-15,0.0,2.420365810394287,-0.024203652516007423,0.10671667009592056,-0.02420365810394287,5.587935447692871e-09,0.0,-0.01330224797129631,0.4618532955646515,0.6177578191643607,-0.3594591021537781,0.5651469230651855,-0.3727613389492035,0.7470242977142334,2.316629409790039,0.9970672130584717,,,,,,,
4585324000.0,79.84,-1.7100000381469727,12041169408.0,1776.9018770349714,50.0,-0.009968562051653862,208896.0,356.50924706459045,5.47652201365878e-15,0.0,2.4102041721343994,-0.024102041497826576,0.11619815230369568,-0.024102041497826576,0.0,0.0,0.03612266480922699,0.48077839612960815,0.5724174103268294,-0.4054611921310425,0.6231741905212402,-0.3693385422229767,0.7352498769760132,2.305135726928711,0.9970061779022217,,,,,,,
4585324000.0,76.49,-1.5700000524520874,12041169408.0,1777.559882547716,51.0,-0.012366615235805511,212992.0,358.81352949142456,5.506012312750386e-15,0.0,2.41715669631958,-0.02417156659066677,0.11870035529136658,-0.02417156659066677,0.0,0.0,-0.031216837465763092,0.4862961769104004,0.5863851044902695,-0.4291892349720001,0.5890407562255859,-0.4604060649871826,0.756140947341919,2.3042824268341064,0.9968774318695068,,,,,,,
4585324000.0,74.9,-1.5700000524520874,12041169408.0,1826.091537414966,52.0,-0.011199826374650002,217088.0,361.05657148361206,5.126107871511465e-15,0.0,2.435699224472046,-0.02435700222849846,0.11313429474830627,-0.024356991052627563,-1.1175870895385742e-08,0.0,-0.023550499230623245,0.4751516282558441,0.5725491118705605,-0.3150598704814911,0.5310556292533875,-0.33861038088798523,0.726756751537323,2.2430419921875,0.9969146251678467,,,,,,,
4585324000.0,75.77,-1.2799999713897705,12041169408.0,1830.5334217138932,53.0,-0.008187567815184593,221184.0,363.29417061805725,5.854691731421724e-15,0.0,2.4491872787475586,-0.024491874501109123,0.09419479966163635,-0.024491872638463974,-1.862645149230957e-09,0.0,0.04905461147427559,0.4313104450702667,0.6621436185041543,-0.34194111824035645,0.614093005657196,-0.29288649559020996,0.7420341372489929,2.2375991344451904,0.9971678256988525,,,,,,,
4585324000.0,76.94,-1.2799999713897705,12041169408.0,1822.6838857497394,54.0,-0.008977280929684639,225280.0,365.54140615463257,4.975186929101483e-15,0.0,2.440711736679077,-0.024407103657722473,0.10978235304355621,-0.024407116696238518,1.210719347000122e-08,0.0,0.037634000182151794,0.46712058782577515,0.6187686211448399,-0.3614234924316406,0.5966352820396423,-0.32378947734832764,0.756544828414917,2.2472355365753174,0.9970457553863525,,,,,,,
4585324000.0,81.26,-1.850000023841858,12041169408.0,1789.2224856780397,55.0,-0.015342901460826397,229376.0,367.83066868782043,4.93875773610597e-15,0.0,2.431558609008789,-0.024315588176250458,0.11010923981666565,-0.02431558631360531,-1.3969838619232178e-09,0.0,-0.04397691413760185,0.4672662913799286,0.6232104169268072,-0.38269734382629395,0.5742102265357971,-0.4266742765903473,0.7612285017967224,2.289262533187866,0.9973878860473633,,,,,,,
4585324000.0,75.43,-2.009999990463257,12041169408.0,1794.473291860978,56.0,-0.012065339833498001,233472.0,370.11323261260986,5.056718932472393e-15,0.0,2.436709403991699,-0.024367090314626694,0.0992899164557457,-0.024367094039916992,3.725290298461914e-09,0.0,0.02785356529057026,0.44480594992637634,0.615357951704737,-0.3980213403701782,0.6120845675468445,-0.3701677620410919,0.7172031402587891,2.2825639247894287,0.9969568252563477,,,,,,,
4585324000.0,76.66,-1.7599999904632568,12041169408.0,1790.3203357657767,57.0,-0.011701442301273346,237568.0,372.401091337204,4.883246584874712e-15,0.0,2.4494636058807373,-0.024494625627994537,0.10595991462469101,-0.024494634941220284,9.313225746154785e-09,0.0,-0.019876256585121155,0.45997437834739685,0.5899979938199711,-0.34032392501831055,0.579506516456604,-0.3602001965045929,0.7183575630187988,2.287858724594116,0.9971296787261963,,,,,,,
4585324000.0,77.14,-1.409999966621399,12041169408.0,1775.8743853908309,58.0,-0.009463286027312279,241664.0,374.7075607776642,5.599687380453133e-15,0.0,2.438303232192993,-0.024383019655942917,0.09573659300804138,-0.02438303269445896,1.30385160446167e-08,0.0,0.07252006232738495,0.4315779209136963,0.6271763312046464,-0.42318829894065857,0.6141542196273804,-0.3506682515144348,0.7068178057670593,2.306469440460205,0.996962308883667,,,,,,,
4585324000.0,72.24,-1.4900000095367432,12041169408.0,1823.07207429192,59.0,-0.01121506281197071,245760.0,376.95431780815125,4.749672877224498e-15,0.0,2.435276985168457,-0.02435278333723545,0.09551115334033966,-0.024352768436074257,-1.4901161193847656e-08,0.0,-0.02595338597893715,0.4363429844379425,0.6287228557573152,-0.29905667901039124,0.5219421982765198,-0.3250100612640381,0.7161086797714233,2.2467570304870605,0.9970312118530273,,,,,,,
4585852000.0,70.0,-1.4299999475479126,12041169408.0,1812.9379097806423,60.0,-0.00870504416525364,249856.0,379.21363401412964,5.379377499004079e-15,0.0,2.4322829246520996,-0.02432282082736492,0.07914602011442184,-0.02432282827794552,7.450580596923828e-09,0.0,-0.03920464217662811,0.3959713578224182,0.7000533935629665,-0.25615325570106506,0.5596397519111633,-0.29535794258117676,0.7230057716369629,2.2593162059783936,0.9970314502716064,,,,,,,
4585852000.0,74.61,-1.2799999713897705,12041169408.0,1785.8176294181912,61.0,-0.010335640981793404,253952.0,381.5072612762451,5.176414852314792e-15,0.0,2.4204859733581543,-0.024204859510064125,0.11574092507362366,-0.024204859510064125,0.0,0.0,-0.00948086567223072,0.4810909032821655,0.5324196844459066,-0.3011567294597626,0.5282217264175415,-0.31063759326934814,0.7035565972328186,2.2936272621154785,0.9973306655883789,,,,,,,
4585852000.0,78.87,-1.2699999809265137,12041169408.0,1772.420796947534,62.0,-0.007272684946656227,258048.0,383.8182249069214,5.450501161519128e-15,0.0,2.445261240005493,-0.024452615529298782,0.07990396022796631,-0.024452611804008484,-3.725290298461914e-09,0.0,0.0007490944117307663,0.39980795979499817,0.658483965097977,-0.2452346682548523,0.518622636795044,-0.24448557198047638,0.6841413378715515,2.3109636306762695,0.9969532489776611,,,,,,,
4634956000.0,79.11,-1.2000000476837158,12041169408.0,1744.343247126787,63.0,-0.010258638300001621,262144.0,386.1663866043091,5.431419203283383e-15,0.0,2.4439244270324707,-0.024439236149191856,0.10956718027591705,-0.024439243599772453,7.450580596923828e-09,0.0,-0.040201738476753235,0.4664454162120819,0.6116536921593736,-0.33506402373313904,0.5243197679519653,-0.37526577711105347,0.7484989762306213,2.3481616973876953,0.9971768856048584,,,,,,,
,,,,,,,,,,,,,,,,,,,,,,,,,,0.0013517873594537377,0.126236692070961,0.1076316237449646,0.0013517873594537377,0.126236692070961,0.1076316237449646,
,,,,,,,,,,,,,,,,,,,,,,,,,,0.0008932976052165031,0.10511011630296707,0.09737356752157211,0.0008932976052165031,0.10511011630296707,0.09737356752157211,
,,,,,,,,,,,,,,,,,,,,,,,,,,0.0005857800133526325,0.09813115000724792,0.09022504836320877,0.0005857800133526325,0.09813115000724792,0.09022504836320877,
,,,,,,,,,,,,,,,,,,,,,,,,,,0.0007374532870016992,0.09174342453479767,0.0862027108669281,0.0007374532870016992,0.09174342453479767,0.0862027108669281,
,,,,,,,,,,,,,,,,,,,,,,,,,,0.000944987463299185,0.08986875414848328,0.08466837555170059,0.000944987463299185,0.08986875414848328,0.08466837555170059,
,,,,,,,,,,,,,,,,,,,,,,,,,,0.00048384632100351155,0.08385032415390015,0.07886691391468048,0.00048384632100351155,0.08385032415390015,0.07886691391468048,
,,,,,,,,,,,,,,,,,,,,,,,,,,,,,,,,-1.78
4637040000.0,78.32,-1.2699999809265137,11990521856.0,17.003510776638972,64.0,-0.009468469768762589,266240.0,627.0578150749207,6.276229536084088e-15,0.0,2.457456111907959,-0.024574551731348038,0.10559665411710739,-0.024574561044573784,1.0244548320770264e-08,0.0,0.06104743480682373,0.4555405378341675,0.6865875975242082,-0.5047928094863892,0.6579723954200745,-0.44374537467956543,0.8137086629867554,240.89142847061157,0.9970526695251465,,,,,,,
4637040000.0,79.25,-1.2300000190734863,12041169408.0,1782.5488779557932,65.0,-0.005695355124771595,270336.0,629.3556482791901,5.979591821692054e-15,0.0,2.469208240509033,-0.024692079052329063,0.07076923549175262,-0.024692082777619362,3.725290298461914e-09,0.0,0.07556556910276413,0.3685939610004425,0.7737773365280427,-0.40963220596313477,0.6695941686630249,-0.33406662940979004,0.7749614715576172,2.297833204269409,0.9969620704650879,,,,,,,
4637040000.0,82.19,-0.9399999976158142,12041169408.0,1751.21214098731,66.0,-0.0073417192324995995,274432.0,631.6945996284485,6.553785292240377e-15,0.0,2.4594554901123047,-0.024594537913799286,0.07849150896072388,-0.02459455467760563,1.6763806343078613e-08,0.0,0.057858869433403015,0.3920113742351532,0.7509803762232184,-0.5480010509490967,0.7000265717506409,-0.49014219641685486,0.7855646014213562,2.338951349258423,0.9972712993621826,,,,,,,
4637040000.0,74.95,-1.0800000429153442,12041169408.0,1825.7658959211994,67.0,-0.010215731337666512,278528.0,633.9380416870117,6.375108774214766e-15,0.0,2.4464025497436523,-0.02446403168141842,0.0764046162366867,-0.024464024230837822,-7.450580596923828e-09,0.0,0.05924041569232941,0.3864405155181885,0.7445869134698953,-0.44288283586502075,0.6649090051651001,-0.38364243507385254,0.7646471261978149,2.2434420585632324,0.9970235824584961,,,,,,,
4637040000.0,71.42,-1.440000057220459,12041169408.0,1754.9790692124884,68.0,-0.012282341718673706,282624.0,636.27197265625,5.6968318951078345e-15,0.0,2.459742784500122,-0.024597419425845146,0.0830831527709961,-0.024597426876425743,7.450580596923828e-09,0.0,0.01895770989358425,0.40724366903305054,0.7153090617011337,-0.42965811491012573,0.6683996319770813,-0.41070041060447693,0.7632511854171753,2.3339309692382812,0.9969537258148193,,,,,,,
4637040000.0,73.73,-1.5,12041169408.0,1759.5542767224354,69.0,-0.010109391994774342,286720.0,638.5998349189758,6.121839146722152e-15,0.0,2.454080581665039,-0.024540802463889122,0.09656336903572083,-0.02454080618917942,3.725290298461914e-09,0.0,-0.004699885379523039,0.439490407705307,0.6468003798403648,-0.3680531084537506,0.5915894508361816,-0.3727530241012573,0.7395018935203552,2.32786226272583,0.9972889423370361,,,,,,,
4637040000.0,74.93,-1.4900000095367432,12041169408.0,1775.6009063695155,70.0,-0.011752641759812832,290816.0,640.9066596031189,6.248473960468459e-15,0.0,2.4355616569519043,-0.02435562200844288,0.1010049432516098,-0.02435561642050743,-5.587935447692871e-09,0.0,0.0065876878798007965,0.4494616985321045,0.643598235726262,-0.35711973905563354,0.5931606292724609,-0.35053208470344543,0.7528747916221619,2.3068246841430664,0.9970300197601318,,,,,,,
4637040000.0,75.57,-1.5499999523162842,12041169408.0,1805.7139176617613,71.0,-0.01027375366538763,294912.0,643.1750144958496,6.642256189515194e-15,0.0,2.43159818649292,-0.02431597374379635,0.08240361511707306,-0.024315981194376945,7.450580596923828e-09,0.0,-0.022877540439367294,0.4053689241409302,0.6988142495716672,-0.2696743607521057,0.5644381046295166,-0.2925519347190857,0.7386406064033508,2.268354892730713,0.9975509643554688,,,,,,,
4637040000.0,77.29,-1.2400000095367432,12041169408.0,1769.6956557658216,72.0,-0.007963938638567924,299008.0,645.4895367622375,5.676015213396113e-15,0.0,2.407975196838379,-0.02407974749803543,0.07165511697530746,-0.02407975122332573,3.725290298461914e-09,0.0,0.004832827486097813,0.3785787522792816,0.7157411357863188,-0.2875967025756836,0.5624659657478333,-0.28276389837265015,0.7100667953491211,2.3145222663879395,0.9971191883087158,,,,,,,
4637040000.0,75.77,-1.2100000381469727,12041169408.0,1740.424823307039,73.0,-0.010447090491652489,303104.0,647.8429851531982,5.870304242705515e-15,0.0,2.423858642578125,-0.024238580837845802,0.09069700539112091,-0.02423858642578125,5.587935447692871e-09,0.0,-0.01171308383345604,0.4257946312427521,0.6411260469503179,-0.19939392805099487,0.5222080945968628,-0.2111070156097412,0.7107701897621155,2.3534483909606934,0.9970564842224121,,,,,,,
4637040000.0,77.18,-1.5499999523162842,12041169408.0,1767.353702428453,74.0,-0.011006856337189674,307200.0,650.1605744361877,5.828670879282072e-15,0.0,2.362236499786377,-0.023622363805770874,0.09835724532604218,-0.023622363805770874,0.0,0.0,-0.041330430656671524,0.44164907932281494,0.6732844031355083,-0.2851399779319763,0.5841487050056458,-0.32647043466567993,0.7726670503616333,2.317589282989502,0.9972865581512451,,,,,,,
4637040000.0,75.3,-1.340000033378601,12041169408.0,1762.0375035820505,75.0,-0.00827677920460701,311296.0,652.4851560592651,6.192962809237201e-15,0.0,2.34043550491333,-0.023404357954859734,0.0736784115433693,-0.023404354229569435,-3.725290298461914e-09,0.0,-0.038266412913799286,0.3820054233074188,0.7197517563845317,-0.2188580185174942,0.5810853242874146,-0.2571244239807129,0.7216025590896606,2.3245816230773926,0.997004508972168,,,,,,,
4637040000.0,74.52,-1.190000057220459,12041169408.0,1772.8396405834358,76.0,-0.01036546379327774,315392.0,654.7955737113953,5.662137425588298e-15,0.0,2.3237009048461914,-0.023237012326717377,0.08098199218511581,-0.023237008601427078,-3.725290298461914e-09,0.0,-0.013245217502117157,0.4022785723209381,0.7380633314604894,-0.3366982340812683,0.6495554447174072,-0.34994345903396606,0.786011278629303,2.310417652130127,0.9971520900726318,,,,,,,
4637040000.0,77.1,-1.659999966621399,12041169408.0,1819.3459564569375,77.0,-0.012905728071928024,319488.0,657.046932220459,5.854691731421724e-15,0.0,2.334444046020508,-0.023344455286860466,0.1888481229543686,-0.023344440385699272,-1.4901161193847656e-08,0.0,-0.08227632939815521,0.609112024307251,0.5797186404012693,-0.3644055426120758,0.6734065413475037,-0.4466818869113922,0.9395655989646912,2.2513585090637207,0.9970214366912842,,,,,,,
4637040000.0,79.16,-1.440000057220459,12041169408.0,1787.4089898617349,78.0,-0.007427390664815903,323584.0,659.3385174274445,6.068062718966871e-15,0.0,2.298661231994629,-0.022986605763435364,0.08168649673461914,-0.02298661135137081,5.587935447692871e-09,0.0,0.0654633566737175,0.39890649914741516,0.7419124697156936,-0.37505704164505005,0.6887751817703247,-0.30959367752075195,0.7852131724357605,2.2915852069854736,0.9972858428955078,,,,,,,
4637040000.0,75.83,-0.9300000071525574,12041169408.0,1770.9721014104693,79.0,-0.006206355057656765,327680.0,661.6513714790344,6.543376951384516e-15,0.0,2.2680840492248535,-0.022680846974253654,0.0652879923582077,-0.022680839523673058,-7.450580596923828e-09,0.0,0.08761028200387955,0.3506143391132355,0.7780335175212465,-0.3522171974182129,0.7223855257034302,-0.26460692286491394,0.7441936731338501,2.312854051589966,0.9969916343688965,,,,,,,
4637040000.0,77.19,-0.9599999785423279,12041169408.0,1709.6848596898321,80.0,-0.007192297838628292,331776.0,664.0471346378326,6.723788192886104e-15,0.0,2.208218812942505,-0.02208218164741993,0.07439059019088745,-0.022082187235355377,5.587935447692871e-09,0.0,0.07011523842811584,0.3793417513370514,0.758032370773665,-0.3971191346645355,0.7243689298629761,-0.3270038962364197,0.771173357963562,2.3957631587982178,0.9972398281097412,,,,,,,
4637040000.0,79.2,-0.8999999761581421,12041169408.0,1801.2011507225775,81.0,-0.00429879454895854,335872.0,666.3211727142334,7.318798345146149e-15,0.0,2.160917282104492,-0.021609164774417877,0.07528023421764374,-0.021609172224998474,7.450580596923828e-09,0.0,0.05882029980421066,0.38358381390571594,0.6845051898523187,-0.3207584619522095,0.6567203402519226,-0.2619381546974182,0.6829110383987427,2.274038076400757,0.9970862865447998,,,,,,,
4637040000.0,74.81,-0.8500000238418579,12041169408.0,1759.1094439605206,82.0,-0.008200107142329216,339968.0,668.649623632431,7.648395805581742e-15,0.0,2.124070644378662,-0.02124069072306156,0.09096322953701019,-0.021240705624222755,1.4901161193847656e-08,0.0,0.06344640254974365,0.4218346178531647,0.6898910793774244,-0.40156668424606323,0.6887298822402954,-0.3381202816963196,0.7575042843818665,2.328450918197632,0.9970266819000244,,,,,,,
4637040000.0,74.48,-0.8100000023841858,12041169408.0,1813.017691092781,83.0,-0.003900637151673436,344064.0,670.9088404178619,9.369241493750735e-15,0.0,2.0699193477630615,-0.02069919742643833,0.09239861369132996,-0.020699193701148033,-3.725290298461914e-09,0.0,0.04330598562955856,0.42774584889411926,0.5608731102865554,-0.16530105471611023,0.5421754121780396,-0.12199506908655167,0.6454918384552002,2.259216785430908,0.9969851970672607,,,,,,,
4637040000.0,77.71,-0.75,12041169408.0,1796.0217276376081,84.0,-0.007537998259067535,348160.0,673.1894364356995,1.0090886459757087e-14,0.0,2.055060863494873,-0.020550604909658432,0.054275788366794586,-0.02055060863494873,3.725290298461914e-09,0.0,-0.011829185299575329,0.3292994201183319,0.7952277627373778,-0.2555936276912689,0.6012799143791199,-0.26742279529571533,0.7277051210403442,2.2805960178375244,0.9971251487731934,,,,,,,
4637040000.0,72.18,-1.2699999809265137,12041169408.0,1810.3180255623488,85.0,-0.012297508306801319,352256.0,675.4520223140717,1.0493342306183706e-14,0.0,2.0248312950134277,-0.020248323678970337,0.06992281973361969,-0.02024831250309944,-1.1175870895385742e-08,0.0,-0.024866068735718727,0.37317731976509094,0.7521015931050153,-0.3010082244873047,0.604307234287262,-0.32587432861328125,0.7495116591453552,2.2625858783721924,0.9982309341430664,,,,,,,
4637040000.0,78.4,-1.100000023841858,12041169408.0,1716.5659451106374,86.0,-0.006155894137918949,356352.0,677.8381817340851,1.1103964969727542e-14,0.0,1.9756977558135986,-0.019756980240345,0.0858789011836052,-0.019756976515054703,-2.7939677238464355e-09,0.0,-0.03612170368432999,0.41290998458862305,0.626514739546565,-0.15871503949165344,0.4792468845844269,-0.19483673572540283,0.675645112991333,2.3861594200134277,0.9969568252563477,,,,,,,
4637040000.0,78.3,-0.8500000238418579,12041169408.0,1782.6186082311951,87.0,-0.006028768140822649,360448.0,680.1359250545502,1.2736339760621718e-14,0.0,1.9638348817825317,-0.01963835209608078,0.05799425393342972,-0.01963834837079048,-3.725290298461914e-09,0.0,0.010605094954371452,0.3404472768306732,0.7484473658229651,-0.18337656557559967,0.5622280240058899,-0.17277146875858307,0.6787899732589722,2.297743320465088,0.9976680278778076,,,,,,,
4637040000.0,72.65,-0.9300000071525574,12041169408.0,1795.3391036821452,88.0,-0.0074486988596618176,364544.0,682.4173882007599,1.3116244201860638e-14,0.0,1.9520009756088257,-0.01952001079916954,0.06944253295660019,-0.01952000893652439,-2.7939677238464355e-09,0.0,-0.004845148883759975,0.37268689274787903,0.7235137437730161,-0.2598932981491089,0.6044989228248596,-0.2647384703159332,0.7087732553482056,2.281463146209717,0.9971261024475098,,,,,,,
4637040000.0,76.71,-0.8999999761581421,12041169408.0,1784.6372296235832,89.0,-0.005497459787875414,368640.0,684.7125325202942,1.1601830607332886e-14,0.0,1.9509634971618652,-0.019509630277752876,0.058730144053697586,-0.019509634003043175,3.725290298461914e-09,0.0,0.0023143794387578964,0.34275883436203003,0.7230528973198995,-0.1314399093389511,0.550906777381897,-0.12912553548812866,0.6513137221336365,2.2951443195343018,0.9972198009490967,,,,,,,
4637040000.0,75.0,-0.6899999976158142,12041169408.0,1763.5194021972716,90.0,-0.008054779842495918,372736.0,687.035160779953,1.2677359162438506e-14,0.0,1.965279221534729,-0.019652798771858215,0.07238985598087311,-0.01965279132127762,-7.450580596923828e-09,0.0,0.004388703964650631,0.38052043318748474,0.7200634957303562,-0.32869550585746765,0.6026920080184937,-0.32430678606033325,0.7191975712776184,2.3226282596588135,0.9970884323120117,,,,,,,
4637040000.0,71.81,-1.0299999713897705,12041169408.0,1748.5322022951136,91.0,-0.008075619116425514,376832.0,689.3776969909668,1.190367249215285e-14,0.0,1.9983189105987549,-0.019983191043138504,0.06202337145805359,-0.019983189180493355,-2.3283064365386963e-09,0.0,-0.024902209639549255,0.3513641357421875,0.73245851443888,-0.2471253126859665,0.5437493920326233,-0.27202752232551575,0.6793003678321838,2.342536211013794,0.9971232414245605,,,,,,,
4637040000.0,79.05,-1.0199999809265137,12041169408.0,1750.221981794089,92.0,-0.004688723012804985,380928.0,691.7179715633392,1.211010458579409e-14,0.0,2.030081272125244,-0.020300816744565964,0.07310755550861359,-0.020300813019275665,-3.725290298461914e-09,0.0,0.019147561863064766,0.38194775581359863,0.6763592443351467,-0.3302609324455261,0.595925509929657,-0.3111133575439453,0.6713861227035522,2.3402745723724365,0.9970200061798096,,,,,,,
4637040000.0,88.09,-0.75,12041169408.0,1823.8020919742542,93.0,-0.005126304924488068,385024.0,693.9638292789459,1.062171184340599e-14,0.0,2.0534632205963135,-0.020534634590148926,0.07757066935300827,-0.020534630864858627,-3.725290298461914e-09,0.0,0.012847566977143288,0.39371830224990845,0.6965032917222972,-0.3215460777282715,0.5939794182777405,-0.30869853496551514,0.7146751284599304,2.2458577156066895,0.9970214366912842,,,,,,,
4637040000.0,84.65,-0.4399999976158142,12041169408.0,1778.223345103716,94.0,0.0,389120.0,696.2672519683838,9.42648736845797e-15,0.0,2.093842029571533,-0.020938418805599213,0.04482818394899368,-0.020938420668244362,2.7939677238464355e-09,0.0,0.09164293110370636,0.2850925624370575,0.7425246314864098,-0.23545260727405548,0.5657836198806763,-0.14380966126918793,0.5618470311164856,2.303422689437866,0.9971740245819092,,,,,,,
4637040000.0,77.3,-0.25,12041169408.0,1754.9758422364814,95.0,-0.0045839170925319195,393216.0,698.6011872291565,1.0247011572595e-14,0.0,2.1497488021850586,-0.02149748057126999,0.05694805085659027,-0.021497488021850586,7.450580596923828e-09,0.0,0.024852659553289413,0.33660972118377686,0.7791028418128467,-0.29437923431396484,0.6203869581222534,-0.26952654123306274,0.7161955237388611,2.333935260772705,0.9972002506256104,,,,,,,
,,,,,,,,,,,,,,,,,,,,,,,,,,0.005277922376990318,0.11375290155410767,0.08151255548000336,0.005277922376990318,0.11375290155410767,0.08151255548000336,
,,,,,,,,,,,,,,,,,,,,,,,,,,0.0035004152450710535,0.08487803488969803,0.07675991207361221,0.0035004152450710535,0.08487803488969803,0.07675991207361221,
,,,,,,,,,,,,,,,,,,,,,,,,,,0.0029417912010103464,0.07829328626394272,0.07078882306814194,0.0029417912010103464,0.07829328626394272,0.07078882306814194,
,,,,,,,,,,,,,,,,,,,,,,,,,,0.0025895845610648394,0.0743880346417427,0.06791959702968597,0.0025895845610648394,0.0743880346417427,0.06791959702968597,
,,,,,,,,,,,,,,,,,,,,,,,,,,0.0026131172198802233,0.07222461700439453,0.06679738312959671,0.0026131172198802233,0.07222461700439453,0.06679738312959671,
,,,,,,,,,,,,,,,,,,,,,,,,,,0.0024719990324229,0.07021728903055191,0.0638214722275734,0.0024719990324229,0.07021728903055191,0.0638214722275734,
,,,,,,,,,,,,,,,,,,,,,,,,,,,,,,,,-1.91
4637812000.0,83.16,-0.4300000071525574,11990521856.0,17.008663716931387,96.0,-0.0015812111087143421,397312.0,939.4196352958679,7.226858000919378e-15,0.0,2.2221739292144775,-0.022221745923161507,0.06634679436683655,-0.02222173847258091,-7.450580596923828e-09,0.0,0.09229958057403564,0.3524268865585327,0.727435014688591,-0.27041107416152954,0.7104297280311584,-0.1781114935874939,0.675046980381012,240.81844806671143,0.9969947338104248,,,,,,,
4637812000.0,77.93,-0.44999998807907104,12041169408.0,1763.786636863442,97.0,-0.006768994033336639,401408.0,941.741911649704,7.894726539170449e-15,0.0,2.239891290664673,-0.02239891327917576,0.0972646027803421,-0.02239891327917576,0.0,0.0,0.007911628112196922,0.44103750586509705,0.653045467672428,-0.28106486797332764,0.5826094746589661,-0.27315324544906616,0.7487541437149048,2.3222763538360596,0.9969804286956787,,,,,,,
4637812000.0,77.7,-0.6899999976158142,12041169408.0,1805.7985688884814,98.0,-0.0034596105106174946,405504.0,944.0101602077484,8.35616298378028e-15,0.0,2.2418441772460938,-0.022418450564146042,0.09160921722650528,-0.022418441250920296,-8.381903171539307e-09,0.0,0.02010287344455719,0.4276201128959656,0.6884592720163918,-0.2342531383037567,0.5787143111228943,-0.21415024995803833,0.7661268711090088,2.2682485580444336,0.9971139430999756,,,,,,,
4637812000.0,84.71,-0.4399999976158142,12041169408.0,1741.1623111095616,99.0,-0.0017339822370558977,409600.0,946.3626117706299,7.490535969267853e-15,0.0,2.253223419189453,-0.022532226517796516,0.07670658826828003,-0.022532233968377113,7.450580596923828e-09,0.0,0.05321986973285675,0.38809481263160706,0.5154299408479734,-0.20746174454689026,0.4778488278388977,-0.15424185991287231,0.5575188398361206,2.3524515628814697,0.9969408512115479,,,,,,,
4637812000.0,85.23,-0.44999998807907104,12041169408.0,1754.2995149192159,100.0,-0.003621824085712433,413696.0,948.6974468231201,8.569533971325427e-15,0.0,2.2229886054992676,-0.022229894995689392,0.06695519387722015,-0.022229885682463646,-9.313225746154785e-09,0.0,0.028255585581064224,0.3648897409439087,0.7458648382411855,-0.2917994260787964,0.6070950627326965,-0.26354384422302246,0.7238178253173828,2.3348350524902344,0.9966497421264648,,,,,,,
4637812000.0,85.29,-0.3700000047683716,12041169408.0,1811.6799393093145,101.0,-0.002467420883476734,417792.0,950.958331823349,8.56259507742152e-15,0.0,2.1926984786987305,-0.021926991641521454,0.09639651328325272,-0.021926984190940857,-7.450580596923828e-09,0.0,-0.005132148042321205,0.4391056299209595,0.5749416735346039,-0.15553289651870728,0.48070627450942993,-0.16066503524780273,0.6735110282897949,2.260885000228882,0.9967589378356934,,,,,,,
4637812000.0,89.97,-0.38999998569488525,12041169408.0,1751.7982002838587,102.0,-0.002467649755999446,421888.0,953.2965006828308,8.869641132669415e-15,0.0,2.2049033641815186,-0.02204902656376362,0.09001211076974869,-0.022049034014344215,7.450580596923828e-09,0.0,0.03654163330793381,0.4227677285671234,0.49161565059441237,-0.24908027052879333,0.4687016010284424,-0.21253862977027893,0.592933177947998,2.3381688594818115,0.9967818260192871,,,,,,,
4637812000.0,94.91,-0.6000000238418579,12041169408.0,1794.6320646156032,103.0,-0.0036217651795595884,425984.0,955.5788626670837,9.471590178833367e-15,0.0,2.2435457706451416,-0.02243545465171337,0.1025283932685852,-0.02243545651435852,1.862645149230957e-09,0.0,-0.005959072150290012,0.45284804701805115,0.6310523020182912,-0.18989087641239166,0.5178654193878174,-0.1958499401807785,0.7455384731292725,2.2823619842529297,0.9968905448913574,,,,,,,
4637812000.0,85.8,-0.4399999976158142,12041169408.0,1805.6662811115884,104.0,-0.002323460765182972,430080.0,957.8472774028778,8.748210489351038e-15,0.0,2.225201368331909,-0.022252008318901062,0.06598973274230957,-0.02225201390683651,5.587935447692871e-09,0.0,0.02122422121465206,0.3627135157585144,0.6450008036572352,-0.1728198528289795,0.46063196659088135,-0.15159562230110168,0.6087655425071716,2.2684147357940674,0.9968085289001465,,,,,,,
4637812000.0,81.29,-0.25999999046325684,12041169408.0,1812.3060297188806,105.0,-0.0004362671170383692,434176.0,960.1073813438416,8.550452013089682e-15,0.0,2.296931266784668,-0.022969312965869904,0.06718116253614426,-0.022969312965869904,0.0,0.0,0.03584519028663635,0.36484235525131226,0.6348153482480912,-0.04335639625787735,0.4415891766548157,-0.007511213421821594,0.6037386059761047,2.260103940963745,0.9966187477111816,,,,,,,
4637812000.0,79.03,0.029999999329447746,12041169408.0,1809.4051218350835,106.0,0.0007289097411558032,438272.0,962.3711087703705,8.260753192601555e-15,0.0,2.315312385559082,-0.023153118789196014,0.05472780019044876,-0.023153122514486313,3.725290298461914e-09,0.0,0.03237156197428703,0.329293429851532,0.5306790735250524,-0.06381143629550934,0.3861427307128906,-0.031439878046512604,0.4806711971759796,2.2637274265289307,0.9970593452453613,,,,,,,
4637812000.0,78.78,0.05999999865889549,12041169408.0,1805.7516870715708,107.0,-0.0032126642763614655,442368.0,964.639416217804,8.449838051483027e-15,0.0,2.3064777851104736,-0.02306477352976799,0.10225450992584229,-0.02306477725505829,3.725290298461914e-09,0.0,-0.030836965888738632,0.4512292146682739,0.5458207839656639,-0.15167026221752167,0.45186302065849304,-0.1825072169303894,0.669550895690918,2.2683074474334717,0.9968936443328857,,,,,,,
4637812000.0,81.65,-0.18000000715255737,12041169408.0,1783.9230327919324,108.0,0.0005854605697095394,446464.0,966.9354794025421,8.51402282009417e-15,0.0,2.304269790649414,-0.023042701184749603,0.053468599915504456,-0.023042697459459305,-3.725290298461914e-09,0.0,0.05228511616587639,0.3228450417518616,0.6397376678883333,-0.1487189531326294,0.43810534477233887,-0.09643383324146271,0.5378791689872742,2.296063184738159,0.9968292713165283,,,,,,,
4637812000.0,85.34,-0.27000001072883606,12041169408.0,1729.7328422385049,109.0,-0.004401099402457476,450560.0,969.3034751415253,9.884454366115847e-15,0.0,2.292039394378662,-0.022920409217476845,0.14117670059204102,-0.02292039431631565,-1.4901161193847656e-08,0.0,-0.04644942283630371,0.5293999314308167,0.6446570629771022,-0.2352040857076645,0.5751194357872009,-0.281653493642807,0.8880963325500488,2.3679957389831543,0.9968752861022949,,,,,,,
4637812000.0,83.26,-0.10999999940395355,12041169408.0,1799.2745437369479,110.0,0.0007349110674113035,454656.0,971.5799481868744,8.999745393367675e-15,0.0,2.3079490661621094,-0.023079482838511467,0.06725537776947021,-0.023079490289092064,7.450580596923828e-09,0.0,0.02344655431807041,0.3660515546798706,0.3325545784838503,-0.028220687061548233,0.3836769163608551,-0.0047741299495100975,0.448058158159256,2.276473045349121,0.9968607425689697,,,,,,,
4637812000.0,81.02,0.10000000149011612,12041169408.0,1794.547707233712,111.0,0.002061268547549844,458752.0,973.8624174594879,9.466386008405436e-15,0.0,2.3070664405822754,-0.023070670664310455,0.07909715175628662,-0.02307066321372986,-7.450580596923828e-09,0.0,0.05084804818034172,0.39452093839645386,0.5634609350829551,-0.08726031333208084,0.4404934048652649,-0.03641226515173912,0.597115695476532,2.2824692726135254,0.9967844486236572,,,,,,,
4637812000.0,78.98,0.12999999523162842,12041169408.0,1748.9188213500433,112.0,0.0010330677032470703,462848.0,976.2044358253479,1.0113437864944785e-14,0.0,2.2838220596313477,-0.02283821627497673,0.10070021450519562,-0.02283822000026703,3.725290298461914e-09,0.0,0.027554266154766083,0.44798460602760315,0.5956593053173949,-0.12905463576316833,0.5462241172790527,-0.10150036215782166,0.7045136094093323,2.3420183658599854,0.9970471858978271,,,,,,,
4637812000.0,82.73,0.23999999463558197,12041169408.0,1790.9565786672722,113.0,0.0016259495168924332,466944.0,978.4914817810059,1.0014558626814107e-14,0.0,2.300828456878662,-0.023008279502391815,0.08614623546600342,-0.023008283227682114,3.725290298461914e-09,0.0,0.03066939488053322,0.41399723291397095,0.6235454734461958,-0.03783189877867699,0.5392389297485352,-0.0071625057607889175,0.6747473478317261,2.287045955657959,0.9966616630554199,,,,,,,
4637812000.0,84.87,-0.14000000059604645,12041169408.0,1795.9439983181976,114.0,-0.002813023282214999,471040.0,980.7721765041351,1.1103964969727542e-14,0.0,2.2607474327087402,-0.02260747365653515,0.09355815500020981,-0.02260747365653515,0.0,0.0,-0.009715070948004723,0.4325130879878998,0.6351970674001559,-0.08877822756767273,0.5659814476966858,-0.098493292927742,0.7160941362380981,2.2806947231292725,0.9969921112060547,,,,,,,
4637812000.0,82.32,-0.07000000029802322,12041169408.0,1788.5185793932358,115.0,0.00207870383746922,475136.0,983.0623400211334,1.1655607035088167e-14,0.0,2.2243587970733643,-0.022243596613407135,0.049441948533058167,-0.02224358730018139,-9.313225746154785e-09,0.0,0.048241227865219116,0.31077367067337036,0.5248988450025193,-0.028134074062108994,0.44070446491241455,0.02010715752840042,0.4508697986602783,2.290163516998291,0.9968314170837402,,,,,,,
4637812000.0,85.22,0.2800000011920929,12041169408.0,1774.4849212563738,116.0,0.0008927269955165684,479232.0,985.3706154823303,1.2172554630929255e-14,0.0,2.250552177429199,-0.022505519911646843,0.06636466830968857,-0.022505521774291992,1.862645149230957e-09,0.0,-0.011692790314555168,0.3641771376132965,0.6179245842231096,0.02134697139263153,0.432791143655777,0.009654177352786064,0.5891666412353516,2.3082754611968994,0.9970488548278809,,,,,,,
4637812000.0,84.05,-0.10999999940395355,12041169408.0,1756.5866811066417,117.0,-0.002236338332295418,483328.0,987.7024104595184,1.2672154992010576e-14,0.0,2.185791492462158,-0.021857913583517075,0.07774751633405685,-0.021857913583517075,0.0,0.0,-0.02164597250521183,0.3937821090221405,0.5885789448439989,-0.09387718141078949,0.4671825170516968,-0.11552315950393677,0.6139212846755981,2.3317949771881104,0.9964742660522461,,,,,,,
4637812000.0,76.02,0.0,12041169408.0,1765.3485725794478,118.0,0.0022420580498874187,487424.0,990.0226321220398,1.1305192892940852e-14,0.0,2.2775683403015137,-0.0227756816893816,0.04467395693063736,-0.02277568355202675,1.862645149230957e-09,0.0,0.016208603978157043,0.2985078692436218,0.6403633704677698,0.07573027908802032,0.4039576053619385,0.09193887561559677,0.49776437878608704,2.3202216625213623,0.9970004558563232,,,,,,,
4637812000.0,74.47,0.3799999952316284,12041169408.0,1778.097642936645,119.0,0.004644714295864105,491520.0,992.3262176513672,1.1848161340921592e-14,0.0,2.233224868774414,-0.022332243621349335,0.042006101459264755,-0.022332247346639633,3.725290298461914e-09,0.0,0.04463361203670502,0.2864263951778412,0.5295444076405951,0.09815413504838943,0.3801167905330658,0.14278773963451385,0.41759347915649414,2.3035855293273926,0.9966604709625244,,,,,,,
4637812000.0,76.84,0.4699999988079071,12041169408.0,1743.893679738085,120.0,0.003304750192910433,495616.0,994.6749846935272,1.4649739754624136e-14,0.0,2.2125914096832275,-0.022125903517007828,0.053520992398262024,-0.022125912830233574,9.313225746154785e-09,0.0,0.0693281888961792,0.3197820484638214,0.5135681271107195,0.09872834384441376,0.4016009271144867,0.16805653274059296,0.4585039019584656,2.348767042160034,0.9968533515930176,,,,,,,
4637812000.0,75.24,0.47999998927116394,12041169408.0,1806.2760669016945,121.0,0.004816781263798475,499712.0,996.9426336288452,1.422299777953384e-14,0.0,2.193772554397583,-0.02193772792816162,0.0694950670003891,-0.021937724202871323,-3.725290298461914e-09,0.0,0.03598729521036148,0.3711181879043579,0.3732238883207647,0.14419004321098328,0.3788047432899475,0.18017733097076416,0.46876588463783264,2.267648935317993,0.9969968795776367,,,,,,,
4637812000.0,77.33,0.4099999964237213,12041169408.0,1720.9928044322214,122.0,0.002111052395775914,503808.0,999.3226552009583,1.601149768326593e-14,0.0,2.160189390182495,-0.02160188928246498,0.06511853635311127,-0.02160189300775528,2.7939677238464355e-09,0.0,-0.006237413268536329,0.36087390780448914,0.3914883284738011,0.22294822335243225,0.3022083044052124,0.21671080589294434,0.46261635422706604,2.380021572113037,0.9965732097625732,,,,,,,
4637812000.0,82.61,0.4699999988079071,12041169408.0,1708.6292684852867,123.0,0.004682828206568956,507904.0,1001.7198984622955,1.5562204302987936e-14,0.0,2.157363176345825,-0.021573640406131744,0.07146723568439484,-0.021573631092905998,-9.313225746154785e-09,0.0,0.02184179797768593,0.3774813711643219,0.3238934449373463,0.26149511337280273,0.2900252938270569,0.28333693742752075,0.4590795636177063,2.3972432613372803,0.9975056648254395,,,,,,,
4637812000.0,79.37,0.2800000011920929,12041169408.0,1743.0007217579482,124.0,0.00030259531922638416,512000.0,1004.0698688030243,1.747733902046633e-14,0.0,2.110532760620117,-0.0211053267121315,0.08369524776935577,-0.0211053267121315,0.0,0.0,-0.04633106291294098,0.40655165910720825,0.31043338266989207,0.1975167691707611,0.3623386025428772,0.15118570625782013,0.4895845055580139,2.3499703407287598,0.9966421127319336,,,,,,,
4637812000.0,78.09,0.3100000023841858,12041169408.0,1748.564591989498,125.0,0.004702542442828417,516096.0,1006.4123616218567,1.6936105295961568e-14,0.0,2.1256260871887207,-0.02125626988708973,0.03237348049879074,-0.021256260573863983,-9.313225746154785e-09,0.0,0.014415659010410309,0.2540765702724457,0.4515842345662905,0.2725868225097656,0.2736095190048218,0.28700247406959534,0.34309130907058716,2.3424928188323975,0.9970579147338867,,,,,,,
4637812000.0,76.69,0.4699999988079071,12041169408.0,1805.599670070917,126.0,0.004106057807803154,520192.0,1008.680860042572,1.6736612096224235e-14,0.0,2.1492249965667725,-0.021492265164852142,0.04103787988424301,-0.02149225026369095,-1.4901161193847656e-08,0.0,-0.017853420227766037,0.28596675395965576,0.43061033119727077,0.2686290740966797,0.2639232873916626,0.25077563524246216,0.37897512316703796,2.268498420715332,0.9971504211425781,,,,,,,
4637812000.0,75.29,0.38999998569488525,12041169408.0,1773.1578379488599,127.0,0.003809812944382429,524288.0,1010.9908630847931,1.3548190347378863e-14,0.0,2.1907846927642822,-0.021907854825258255,0.05571254342794418,-0.02190784551203251,-9.313225746154785e-09,0.0,-0.021329384297132492,0.33316248655319214,0.3114727814649312,0.2625651955604553,0.23060597479343414,0.24123582243919373,0.40150925517082214,2.3100030422210693,0.9980573654174805,,,,,,,
,,,,,,,,,,,,,,,,,,,,,,,,,,0.029903659597039223,0.11956947296857834,0.09133512526750565,0.029903659597039223,0.11956947296857834,0.09133512526750565,
,,,,,,,,,,,,,,,,,,,,,,,,,,0.013008891604840755,0.09183042496442795,0.07883957773447037,0.013008891604840755,0.09183042496442795,0.07883957773447037,
,,,,,,,,,,,,,,,,,,,,,,,,,,0.008802592754364014,0.0853925496339798,0.07330303639173508,0.008802592754364014,0.0853925496339798,0.07330303639173508,
,,,,,,,,,,,,,,,,,,,,,,,,,,0.007487085182219744,0.07968765497207642,0.07082781195640564,0.007487085182219744,0.07968765497207642,0.07082781195640564,
,,,,,,,,,,,,,,,,,,,,,,,,,,0.007712577003985643,0.0778464674949646,0.07018622010946274,0.007712577003985643,0.0778464674949646,0.07018622010946274,
,,,,,,,,,,,,,,,,,,,,,,,,,,0.00812100525945425,0.07775898277759552,0.06848875433206558,0.00812100525945425,0.07775898277759552,0.06848875433206558,
,,,,,,,,,,,,,,,,,,,,,,,,,,,,,,,,-1.05
4637900000.0,77.93,0.4399999976158142,11990521856.0,17.037534164966434,128.0,0.002748013474047184,528384.0,1251.4012393951416,9.396997069366364e-15,0.0,2.2655935287475586,-0.022655930370092392,0.06856344640254974,-0.02265593409538269,3.725290298461914e-09,0.0,0.05158982053399086,0.36673998832702637,0.31687407199025164,0.06220051646232605,0.34807002544403076,0.11379033327102661,0.4437188506126404,240.4103763103485,0.9966824054718018,,,,,,,
4637900000.0,79.59,0.7200000286102295,12041169408.0,1789.2601273883758,129.0,0.00841476023197174,532480.0,1253.6904537677765,9.495876307497042e-15,0.0,2.279147148132324,-0.022791502997279167,0.031967855989933014,-0.02279147133231163,-3.166496753692627e-08,0.0,0.09946270287036896,0.2324996292591095,0.5174751104439114,0.12135426700115204,0.3134920299053192,0.220816969871521,0.3347051739692688,2.2892143726348877,0.9966344833374023,,,,,,,
4637900000.0,79.91,0.7900000214576721,12041169408.0,1756.8067252464252,130.0,0.00444599986076355,536576.0,1256.0219566822052,9.443834603217738e-15,0.0,2.2601499557495117,-0.022601481527090073,0.038589995354413986,-0.022601498290896416,1.6763806343078613e-08,0.0,0.08428308367729187,0.26475170254707336,0.4395864437113255,0.025659602135419846,0.28120821714401245,0.10994268208742142,0.3536587655544281,2.331502914428711,0.9969534873962402,,,,,,,
4637900000.0,78.12,0.6200000047683716,12041169408.0,1804.3437105592195,131.0,0.0058374786749482155,540672.0,1258.29203414917,9.216585827864776e-15,0.0,2.2681055068969727,-0.02268105000257492,0.03285275399684906,-0.02268105372786522,3.725290298461914e-09,0.0,0.06536141037940979,0.24788786470890045,0.641228824138795,0.05840687453746796,0.3289392590522766,0.12376827746629715,0.41385334730148315,2.2700774669647217,0.9964711666107178,,,,,,,
4637900000.0,80.89,0.8500000238418579,12041169408.0,1770.4899114799832,132.0,0.008311353623867035,544768.0,1260.6055181026459,8.43769498715119e-15,0.0,2.349040985107422,-0.02349040098488331,0.03002730756998062,-0.023490408435463905,7.450580596923828e-09,0.0,0.10386842489242554,0.22198648750782013,0.4664195496966068,0.08867062628269196,0.283598929643631,0.1925390511751175,0.30389711260795593,2.313483953475952,0.9968273639678955,,,,,,,
4637900000.0,82.21,0.8700000047683716,12041169408.0,1778.6815814773854,133.0,0.004163633566349745,548864.0,1262.9083473682404,9.254749744336266e-15,0.0,2.320890426635742,-0.023208897560834885,0.06022588536143303,-0.023208903148770332,4.6566128730773926e-09,0.0,0.034640777856111526,0.34537068009376526,0.17372654852401093,0.07746025174856186,0.2654854953289032,0.11210103332996368,0.3799475133419037,2.3028292655944824,0.9967648983001709,,,,,,,
4637900000.0,74.61,0.41999998688697815,12041169408.0,1791.9062777901433,134.0,0.0034002235624939203,552960.0,1265.1941812038422,8.283304597789254e-15,0.0,2.4052278995513916,-0.02405228465795517,0.0425163134932518,-0.024052279070019722,-5.587935447692871e-09,0.0,0.0167145524173975,0.29115965962409973,0.5263515713671385,0.1193232610821724,0.28035780787467957,0.13603782653808594,0.4230611324310303,2.2858338356018066,0.9970703125,,,,,,,
4637900000.0,73.99,0.4699999988079071,12041169408.0,1796.9493659115692,135.0,0.004026208538562059,557056.0,1267.473599910736,9.140257994921797e-15,0.0,2.3751745223999023,-0.023751741275191307,0.0363621786236763,-0.023751745000481606,3.725290298461914e-09,0.0,0.04770088195800781,0.2654546797275543,0.5905866363148499,0.09636354446411133,0.30788081884384155,0.14406442642211914,0.41486746072769165,2.279418706893921,0.9970123767852783,,,,,,,
4637900000.0,73.4,0.5,12041169408.0,1778.9407211640366,136.0,0.004655634518712759,561152.0,1269.7760937213898,8.260753192601555e-15,0.0,2.412848711013794,-0.02412848174571991,0.0483703538775444,-0.024128487333655357,5.587935447692871e-09,0.0,0.03943142294883728,0.30855974555015564,0.45895503765946166,0.18274816870689392,0.2825010418891907,0.2221795916557312,0.4194909334182739,2.3024938106536865,0.996453046798706,,,,,,,
4637900000.0,77.56,0.7900000214576721,12041169408.0,1769.0432764001857,137.0,0.007618320174515247,565248.0,1272.091469526291,8.911274496092858e-15,0.0,2.4096126556396484,-0.024096131324768066,0.02586660534143448,-0.02409612573683262,-6.05359673500061e-09,0.0,0.06255396455526352,0.21870504319667816,0.6532604436027429,0.17009857296943665,0.28983011841773987,0.23265254497528076,0.371412992477417,2.315375804901123,0.9969015121459961,,,,,,,
4637900000.0,79.04,0.8899999856948853,12041169408.0,1701.0157145147152,138.0,0.0073203095234930515,569344.0,1274.499442577362,9.01882735160342e-15,0.0,2.4071145057678223,-0.02407114952802658,0.05630890280008316,-0.024071143940091133,-5.587935447692871e-09,0.0,0.03855852782726288,0.33340394496917725,0.4317512991004495,0.19160230457782745,0.2983844578266144,0.23016083240509033,0.44228431582450867,2.407973051071167,0.9968161582946777,,,,,,,
4637900000.0,77.9,0.7799999713897705,12041169408.0,1719.5782160811616,139.0,0.0060855308547616005,573440.0,1276.8814220428467,8.14973089013904e-15,0.0,2.428647756576538,-0.024286486208438873,0.057653024792671204,-0.024286476895213127,-9.313225746154785e-09,0.0,0.020735150203108788,0.3389751613140106,0.46498624408804956,0.24134480953216553,0.3031211793422699,0.26207998394966125,0.46343132853507996,2.381979465484619,0.9966902732849121,,,,,,,
4637900000.0,77.94,0.75,12041169408.0,1808.5647228448204,140.0,0.007036922033876181,577536.0,1279.1462013721466,1.0064865607617435e-14,0.0,2.3483242988586426,-0.023483246564865112,0.02406851202249527,-0.023483242839574814,-3.725290298461914e-09,0.0,0.04310910776257515,0.21515093743801117,0.6715214571557522,0.23249918222427368,0.29741370677948,0.27560827136039734,0.37539610266685486,2.2647793292999268,0.9969995021820068,,,,,,,
4637900000.0,76.75,0.8100000023841858,12041169408.0,1830.2379757882602,141.0,0.006893318612128496,581632.0,1281.3841617107391,8.881784197001252e-15,0.0,2.3747620582580566,-0.02374761551618576,0.026774119585752487,-0.02374761924147606,3.725290298461914e-09,0.0,0.02915405109524727,0.2295890897512436,0.6928966779451757,0.3096253275871277,0.3409942388534546,0.33877938985824585,0.41429436206817627,2.2379603385925293,0.9970905780792236,,,,,,,
4637900000.0,79.89,0.7699999809265137,12041169408.0,1778.670348273139,142.0,0.005807674489915371,585728.0,1283.687005519867,8.98586760555986e-15,0.0,2.328800678253174,-0.023288005962967873,0.03775975853204727,-0.023288005962967873,0.0,0.0,0.0011407285928726196,0.27483931183815,0.571911841437865,0.3434144854545593,0.3432313799858093,0.34455519914627075,0.420060932636261,2.3028438091278076,0.9970016479492188,,,,,,,
4637900000.0,78.46,0.8299999833106995,12041169408.0,1778.029001964437,143.0,0.008177547715604305,589824.0,1285.9906799793243,9.30679144861557e-15,0.0,2.3298895359039307,-0.023298894986510277,0.02379116415977478,-0.023298894986510277,0.0,0.0,0.014112891629338264,0.21770329773426056,0.7270683092862479,0.36216768622398376,0.36642909049987793,0.37628060579299927,0.4167139232158661,2.3036744594573975,0.9979071617126465,,,,,,,
4637900000.0,77.08,1.090000033378601,12041169408.0,1795.3447322219806,144.0,0.008822901174426079,593920.0,1288.2721359729767,9.615572227339442e-15,0.0,2.3379526138305664,-0.023379532620310783,0.031742025166749954,-0.023379525169730186,-7.450580596923828e-09,0.0,0.0011792853474617004,0.2519884407520294,0.7061806382836235,0.3998180031776428,0.39321795105934143,0.4009972810745239,0.46487951278686523,2.2814559936523438,0.9969415664672852,,,,,,,
4637900000.0,76.13,0.9100000262260437,12041169408.0,1780.6285401274124,145.0,0.006315381266176701,598016.0,1290.5724472999573,1.009435590670904e-14,0.0,2.349891424179077,-0.023498903959989548,0.027946865186095238,-0.023498913273215294,8.381903171539307e-09,0.0,-0.017311397939920425,0.23581267893314362,0.730714150100686,0.4264070987701416,0.4007461369037628,0.40909576416015625,0.45442312955856323,2.300311326980591,0.9968225955963135,,,,,,,
4637900000.0,75.93,0.8600000143051147,12041169408.0,1787.4400463281354,146.0,0.00775188859552145,602112.0,1292.86399269104,9.870576578308032e-15,0.0,2.266846179962158,-0.022668473422527313,0.02366309054195881,-0.02266846038401127,-1.30385160446167e-08,0.0,-0.01980571635067463,0.21666882932186127,0.7626651719292231,0.4218725562095642,0.401676744222641,0.40206682682037354,0.4447496831417084,2.2915453910827637,0.99672532081604,,,,,,,
4637900000.0,74.51,0.9300000071525574,12041169408.0,1694.47205194632,147.0,0.009034745395183563,606208.0,1295.281264781952,1.0011089179862154e-14,0.0,2.304208278656006,-0.023042093962430954,0.0274362713098526,-0.02304208278656006,-1.1641532182693481e-08,0.0,0.0024363542906939983,0.2342648208141327,0.7553059190325636,0.42805200815200806,0.42411503195762634,0.43048837780952454,0.4735821783542633,2.4172720909118652,0.9970414638519287,,,,,,,
4637900000.0,76.48,1.059999942779541,12041169408.0,1733.0713985458028,148.0,0.008574685081839561,610304.0,1297.644698858261,1.1071005223683983e-14,0.0,2.303565740585327,-0.023035656660795212,0.039832331240177155,-0.023035656660795212,0.0,0.0,-0.009777866303920746,0.28211432695388794,0.7258815745764242,0.4742562770843506,0.45844340324401855,0.46447843313217163,0.538835346698761,2.363434076309204,0.9970729351043701,,,,,,,
4637900000.0,73.62,0.8899999856948853,12041169408.0,1787.4385585686066,149.0,0.007632371038198471,614400.0,1299.9362461566925,1.112651637491524e-14,0.0,2.298300266265869,-0.02298300340771675,0.05247223749756813,-0.022983001545071602,-9.313225746154785e-10,0.0,-0.04460003599524498,0.3209056854248047,0.6702540116315657,0.518126904964447,0.4559343457221985,0.47352689504623413,0.5588401556015015,2.2915472984313965,0.9970078468322754,,,,,,,
4637900000.0,75.81,0.8799999952316284,12041169408.0,1756.5173561697325,150.0,0.0074859014712274075,618496.0,1302.2681331634521,1.1367642938076017e-14,0.0,2.281794548034668,-0.02281794510781765,0.027501482516527176,-0.02281794510781765,0.0,0.0,-0.01396694965660572,0.23413941264152527,0.7311961073964868,0.38183361291885376,0.41806119680404663,0.3678666651248932,0.451602965593338,2.3318870067596436,0.9969136714935303,,,,,,,
4637900000.0,76.61,0.7599999904632568,12041169408.0,1792.3153096816852,151.0,0.004786758683621883,622592.0,1304.5534453392029,1.1372847108503947e-14,0.0,2.279921770095825,-0.02279922179877758,0.05742652714252472,-0.022799218073487282,-3.725290298461914e-09,0.0,-0.06586756557226181,0.3324778378009796,0.6132223304203686,0.4126300811767578,0.4102083146572113,0.3467625379562378,0.5346037745475769,2.2853121757507324,0.9969692230224609,,,,,,,
4637900000.0,75.38,0.6899999976158142,12041169408.0,1778.8668577392687,152.0,0.00671481853350997,626688.0,1306.8560347557068,1.1310397063368782e-14,0.0,2.283712148666382,-0.022837117314338684,0.03768237680196762,-0.022837121039628983,3.725290298461914e-09,0.0,-0.016720620915293694,0.27405017614364624,0.6620587210732145,0.3652326464653015,0.3821840286254883,0.34851205348968506,0.47142165899276733,2.3025894165039062,0.9969809055328369,,,,,,,
4637900000.0,78.03,0.6800000071525574,12041169408.0,1776.9673064487235,153.0,0.005922854878008366,630784.0,1309.1610856056213,1.1986939218999737e-14,0.0,2.2652230262756348,-0.022652238607406616,0.058052707463502884,-0.02265222929418087,-8.381903171539307e-09,0.0,-0.030402813106775284,0.33942481875419617,0.5611196637060789,0.3521271347999573,0.39048588275909424,0.3217243552207947,0.5123544335365295,2.305050849914551,0.9968674182891846,,,,,,,
4637900000.0,80.41,0.7300000190734863,12041169408.0,1800.7202919243473,154.0,0.004971163813024759,634880.0,1311.435730934143,1.330532906074211e-14,0.0,2.2617101669311523,-0.022617094218730927,0.04523974657058716,-0.022617101669311523,7.450580596923828e-09,0.0,-0.03422098606824875,0.2988816201686859,0.5393856263275331,0.27858471870422363,0.3440740406513214,0.24436374008655548,0.4403828978538513,2.2746453285217285,0.9966673851013184,,,,,,,
4637900000.0,78.87,0.7099999785423279,12041169408.0,1804.9351572632647,155.0,0.006425827741622925,638976.0,1313.705064535141,1.2049389264134902e-14,0.0,2.3304200172424316,-0.023304201662540436,0.035475652664899826,-0.023304199799895287,-2.7939677238464355e-09,0.0,0.004725548438727856,0.2663574516773224,0.6417115871511799,0.2965031564235687,0.35814258456230164,0.30122870206832886,0.4449881911277771,2.269333600997925,0.9965720176696777,,,,,,,
4637900000.0,74.89,0.7300000190734863,12041169408.0,1776.925953028601,156.0,0.006596545223146677,643072.0,1316.0101690292358,1.0916614834322047e-14,0.0,2.3592538833618164,-0.023592542856931686,0.04978414997458458,-0.023592539131641388,-3.725290298461914e-09,0.0,0.006988787092268467,0.3155055642127991,0.5462477059950235,0.2311401218175888,0.3168867230415344,0.2381289154291153,0.4683791995048523,2.3051044940948486,0.9976677894592285,,,,,,,
4637900000.0,72.98,0.5099999904632568,12041169408.0,1743.2509832751145,157.0,0.0027385535649955273,647168.0,1318.3598020076752,1.3183898417423734e-14,0.0,2.343322515487671,-0.023433225229382515,0.06081761419773102,-0.023433225229382515,0.0,0.0,-0.030163565650582314,0.3474980294704437,0.43021020041295466,0.1526995599269867,0.31004807353019714,0.12253598868846893,0.46035727858543396,2.349632978439331,0.9967210292816162,,,,,,,
4637900000.0,75.08,0.3100000023841858,12041169408.0,1795.1153040178392,158.0,0.0022580279037356377,651264.0,1320.6415495872498,1.2873382915223885e-14,0.0,2.3347229957580566,-0.02334722876548767,0.06459728628396988,-0.02334722876548767,-9.313225746154785e-10,0.0,-0.00036027946043759584,0.3594801723957062,0.5009971589296733,0.144399031996727,0.3086533844470978,0.14403875172138214,0.5088894963264465,2.281747579574585,0.996504545211792,,,,,,,
4637900000.0,74.63,0.4099999964237213,12041169408.0,1797.53371724956,159.0,0.006621882319450378,655360.0,1322.9202272891998,1.2377252001094519e-14,0.0,2.3166184425354004,-0.023166188970208168,0.031004227697849274,-0.02316618338227272,-4.889443516731262e-09,0.0,0.027789179235696793,0.24748975038528442,0.6315485178897835,0.16530703008174896,0.3138856589794159,0.19309622049331665,0.4077247083187103,2.2786777019500732,0.9967963695526123,,,,,,,
,,,,,,,,,,,,,,,,,,,,,,,,,,0.004548294469714165,0.05084295570850372,0.041866324841976166,0.004548294469714165,0.05084295570850372,0.041866324841976166,
,,,,,,,,,,,,,,,,,,,,,,,,,,0.002729763276875019,0.03989062085747719,0.036352913826704025,0.002729763276875019,0.03989062085747719,0.036352913826704025,
,,,,,,,,,,,,,,,,,,,,,,,,,,0.002798798494040966,0.038852497935295105,0.0351494625210762,0.002798798494040966,0.038852497935295105,0.0351494625210762,
,,,,,,,,,,,,,,,,,,,,,,,,,,0.0023080273531377316,0.036774903535842896,0.033869121223688126,0.0023080273531377316,0.036774903535842896,0.033869121223688126,
,,,,,,,,,,,,,,,,,,,,,,,,,,0.002076642820611596,0.03556346148252487,0.03263105824589729,0.002076642820611596,0.03556346148252487,0.03263105824589729,
,,,,,,,,,,,,,,,,,,,,,,,,,,0.0021138673182576895,0.03453444316983223,0.03142717480659485,0.0021138673182576895,0.03453444316983223,0.03142717480659485,
,,,,,,,,,,,,,,,,,,,,,,,,,,,,,,,,-0.27
4637900000.0,77.07,0.6800000071525574,11990521856.0,17.03720040044628,160.0,0.0063082072883844376,659456.0,1563.33531332016,1.0932227345605838e-14,0.0,2.3045289516448975,-0.023045288398861885,0.037095628678798676,-0.023045288398861885,0.0,0.0,-0.00696735642850399,0.2723248600959778,0.6900428833124352,0.28821200132369995,0.3440534472465515,0.2812446355819702,0.4891436994075775,240.41508603096008,0.9966421127319336,,,,,,,
4637900000.0,77.69,0.75,12041169408.0,1791.3674185114521,161.0,0.005995095707476139,663552.0,1565.6218347549438,1.1808262700974126e-14,0.0,2.2664337158203125,-0.02266434021294117,0.02930164337158203,-0.02266433648765087,-3.725290298461914e-09,0.0,-0.0028368625789880753,0.24209408462047577,0.7201708776574376,0.2644089460372925,0.3354549705982208,0.26157206296920776,0.45765450596809387,2.2865214347839355,0.9965362548828125,,,,,,,
4637900000.0,75.32,0.7400000095367432,12041169408.0,1808.043390004033,162.0,0.007466249633580446,667648.0,1567.887267112732,1.2781442570997115e-14,0.0,2.2457494735717773,-0.022457489743828773,0.022964412346482277,-0.022457493469119072,3.725290298461914e-09,0.0,8.140876889228821e-05,0.21433626115322113,0.7913105517298443,0.26935696601867676,0.37122586369514465,0.26943838596343994,0.4691864252090454,2.265432357788086,0.9972879886627197,,,,,,,
4637900000.0,74.91,0.9100000262260437,12041169408.0,1763.4073543063391,163.0,0.008777061477303505,671744.0,1570.2100429534912,1.3600232051658168e-14,0.0,2.236764907836914,-0.022367652505636215,0.017279446125030518,-0.022367648780345917,-4.6566128730773926e-09,0.0,0.02571774832904339,0.18413518369197845,0.8177012920515129,0.27337461709976196,0.38097622990608215,0.2990923523902893,0.43126580119132996,2.3227758407592773,0.9967591762542725,,,,,,,
4637900000.0,76.82,1.0299999713897705,12041169408.0,1761.601168612868,164.0,0.007652902044355869,675840.0,1572.5352003574371,1.226276025168005e-14,0.0,2.258756637573242,-0.022587567567825317,0.016743160784244537,-0.022587565705180168,-9.313225746154785e-10,0.0,0.02864689938724041,0.180758535861969,0.8265208780406514,0.32661983370780945,0.3674979507923126,0.3552667498588562,0.43398547172546387,2.325157403945923,0.9967951774597168,,,,,,,
4637900000.0,81.31,1.1100000143051147,12041169408.0,1803.7049288449787,165.0,0.011089101433753967,679936.0,1574.8060817718506,1.3107570584480754e-14,0.0,2.2477405071258545,-0.02247737906873226,0.014391940087080002,-0.02247740514576435,2.60770320892334e-08,0.0,0.044905781745910645,0.1636272668838501,0.8624860888809172,0.3348657488822937,0.39368781447410583,0.37977156043052673,0.4412476122379303,2.270881414413452,0.9967024326324463,,,,,,,
4637900000.0,80.98,1.1299999952316284,12041169408.0,1808.2597665979881,166.0,0.007351708598434925,684032.0,1577.0712430477142,1.2491743750508988e-14,0.0,2.286996364593506,-0.022869981825351715,0.017280548810958862,-0.022869963198900223,-1.862645149230957e-08,0.0,0.01933460310101509,0.1849205642938614,0.7953481653667903,0.29624974727630615,0.34311869740486145,0.31558433175086975,0.40876850485801697,2.2651612758636475,0.9967246055603027,,,,,,,
4637900000.0,78.79,1.0700000524520874,12041169408.0,1794.5898849333212,167.0,0.008673161268234253,688128.0,1579.3536586761475,1.4117179647499256e-14,0.0,2.2319369316101074,-0.022319376468658447,0.02115337736904621,-0.02231936901807785,-7.450580596923828e-09,0.0,0.003278216812759638,0.20568504929542542,0.8313342895685915,0.3686422109603882,0.45362696051597595,0.3719204366207123,0.5008288621902466,2.2824156284332275,0.9969015121459961,,,,,,,
4637900000.0,80.39,1.100000023841858,12041169408.0,1757.4013895442822,168.0,0.010325614362955093,692224.0,1581.684372663498,1.3190837311327641e-14,0.0,2.218600034713745,-0.022185994312167168,0.013247473165392876,-0.022185999900102615,5.587935447692871e-09,0.0,0.03907560184597969,0.15803208947181702,0.8964925072701145,0.38420045375823975,0.45557263493537903,0.42327606678009033,0.49120116233825684,2.330713987350464,0.99656081199646,,,,,,,
4637900000.0,79.11,1.1100000143051147,12041169408.0,1810.0443247197886,169.0,0.009358195587992668,696320.0,1583.9473006725311,1.5659348817642638e-14,0.0,2.169722080230713,-0.02169721946120262,0.00920913927257061,-0.02169721946120262,0.0,0.0,0.010485280305147171,0.13532483577728271,0.9177581657094758,0.3334537148475647,0.44638919830322266,0.343938946723938,0.47187942266464233,2.262928009033203,0.996819257736206,,,,,,,
4637900000.0,76.12,1.0299999713897705,12041169408.0,1736.852787058306,170.0,0.010028939694166183,700416.0,1586.3055891990662,1.454392162258955e-14,0.0,2.1464602947235107,-0.021464616060256958,0.01134433038532734,-0.021464603021740913,-1.30385160446167e-08,0.0,0.013123990967869759,0.15007305145263672,0.9015021443659098,0.3392271101474762,0.4427299499511719,0.3523511290550232,0.4781776964664459,2.358288526535034,0.997103214263916,,,,,,,
4637900000.0,79.43,1.059999942779541,12041169408.0,1694.7349849332177,171.0,0.008721502497792244,704512.0,1588.722486257553,1.4483206300930362e-14,0.0,2.1540274620056152,-0.02154027670621872,0.03335106000304222,-0.02154027484357357,-1.862645149230957e-09,0.0,0.003166413865983486,0.2582796514034271,0.7356715595202638,0.3257334232330322,0.4366762638092041,0.3288998007774353,0.5023636817932129,2.4168970584869385,0.9970836639404297,,,,,,,
4637900000.0,81.87,1.1299999952316284,12041169408.0,1725.3855441518776,172.0,0.008239821530878544,708608.0,1591.0964484214783,1.4722598140615162e-14,0.0,2.192208766937256,-0.021922091022133827,0.02267434448003769,-0.02192208729684353,-3.725290298461914e-09,0.0,-0.009637940675020218,0.2127600759267807,0.8434997486467966,0.4625438451766968,0.5124030113220215,0.45290595293045044,0.5378146171569824,2.373962163925171,0.9974534511566162,,,,,,,
4637900000.0,83.21,0.9599999785423279,12041169408.0,1814.3058774031024,173.0,0.005939476657658815,712704.0,1593.354061126709,1.4776374568370443e-14,0.0,2.148296356201172,-0.021482978016138077,0.05558902770280838,-0.021482963114976883,-1.4901161193847656e-08,0.0,-0.05311241373419762,0.3292166292667389,0.6805672224447705,0.4135948419570923,0.49614566564559937,0.36048245429992676,0.5824947953224182,2.257612705230713,0.9967679977416992,,,,,,,
4637900000.0,82.74,0.8100000023841858,12041169408.0,1726.6130773343625,174.0,0.008094281889498234,716800.0,1595.7263355255127,1.421779360910591e-14,0.0,2.213975191116333,-0.022139737382531166,0.02848152257502079,-0.02213975228369236,1.4901161193847656e-08,0.0,-0.022318165749311447,0.23765254020690918,0.8374908864718742,0.45402395725250244,0.5373954176902771,0.4317057728767395,0.5895268321037292,2.372274398803711,0.9966897964477539,,,,,,,
4637900000.0,84.14,0.9200000166893005,12041169408.0,1775.1543439225507,175.0,0.007609460037201643,720896.0,1598.0337405204773,1.5303730505067392e-14,0.0,2.165980577468872,-0.021659808233380318,0.02922276221215725,-0.02165980450809002,-3.725290298461914e-09,0.0,-0.01361125335097313,0.2414010763168335,0.8219832386307561,0.43477511405944824,0.5384729504585266,0.4211638569831848,0.5721485018730164,2.3074049949645996,0.9969754219055176,,,,,,,
4637900000.0,77.66,0.9599999785423279,12041169408.0,1806.953160745905,176.0,0.009278004989027977,724992.0,1600.3005397319794,1.422993667343775e-14,0.0,2.160956859588623,-0.02160957083106041,0.014095115475356579,-0.02160956896841526,-2.7939677238464355e-09,0.0,-0.02049657329916954,0.16666404902935028,0.9246916896622908,0.4911986291408539,0.5972763895988464,0.47070205211639404,0.6073240637779236,2.266799211502075,0.9969038963317871,,,,,,,
4637900000.0,74.89,1.149999976158142,12041169408.0,1795.2786929101208,177.0,0.009624602273106575,729088.0,1602.5820796489716,1.3565537582138631e-14,0.0,2.165637254714966,-0.021656371653079987,0.013067489489912987,-0.021656371653079987,0.0,0.0,-0.006576697342097759,0.16154906153678894,0.9123416519405818,0.4339723587036133,0.5512312054634094,0.42739564180374146,0.5456419587135315,2.2815399169921875,0.9966392517089844,,,,,,,
4637900000.0,76.62,1.090000033378601,12041169408.0,1723.884499661793,178.0,0.009805645793676376,733184.0,1604.9581089019775,1.3336554083309693e-14,0.0,2.1567447185516357,-0.021567441523075104,0.010162962600588799,-0.02156744711101055,5.587935447692871e-09,0.0,-0.004119358025491238,0.14252689480781555,0.9178697476220957,0.40618896484375,0.5012679100036621,0.4020695984363556,0.4973306953907013,2.3760292530059814,0.9968516826629639,,,,,,,
4637900000.0,78.03,1.0299999713897705,12041169408.0,1814.009708299105,179.0,0.008654138073325157,737280.0,1607.2160902023315,1.3985340663325019e-14,0.0,2.185309648513794,-0.021853094920516014,0.027212902903556824,-0.021853096783161163,1.862645149230957e-09,0.0,-0.022774580866098404,0.23220743238925934,0.8283671708623093,0.41309845447540283,0.5354288220405579,0.3903238773345947,0.56050044298172,2.257981300354004,0.996882438659668,,,,,,,
4637900000.0,78.27,1.100000023841858,12041169408.0,1767.4973470876812,180.0,0.00966797024011612,741376.0,1609.5334911346436,1.3459719450104046e-14,0.0,2.1891050338745117,-0.021891063079237938,0.008082776330411434,-0.021891050040721893,-1.30385160446167e-08,0.0,0.006724182050675154,0.12698139250278473,0.9468440259362005,0.40573424100875854,0.5471761226654053,0.4124584197998047,0.5507621169090271,2.3174009323120117,0.9966914653778076,,,,,,,
4637900000.0,76.75,1.2699999809265137,12041169408.0,1797.9552952489037,181.0,0.012518946081399918,745472.0,1611.8116345405579,1.3293185996410273e-14,0.0,2.234008312225342,-0.022340090945363045,0.012364995665848255,-0.022340083494782448,-7.450580596923828e-09,0.0,0.00879786815494299,0.1570305973291397,0.9210392868340228,0.5033189058303833,0.5674453973770142,0.5121167898178101,0.5588287711143494,2.2781434059143066,0.9966039657592773,,,,,,,
4637900000.0,79.07,1.1699999570846558,12041169408.0,1773.064507736059,182.0,0.008190500549972057,749568.0,1614.1217591762543,1.2295719997723609e-14,0.0,2.2343902587890625,-0.022343894466757774,0.011645937338471413,-0.02234390191733837,7.450580596923828e-09,0.0,-0.0030622361227869987,0.15260466933250427,0.8877708267812829,0.28233522176742554,0.42237550020217896,0.27927297353744507,0.45552781224250793,2.310124635696411,0.9969496726989746,,,,,,,
4637900000.0,78.06,1.1100000143051147,12041169408.0,1773.532721773026,183.0,0.011549275368452072,753664.0,1616.4312739372253,1.3189102587851664e-14,0.0,2.2463841438293457,-0.02246384508907795,0.010525958612561226,-0.02246384136378765,-3.725290298461914e-09,0.0,0.015252398326992989,0.1443064957857132,0.9345961243924661,0.44058507680892944,0.5502613186836243,0.4558374285697937,0.5642663240432739,2.3095147609710693,0.9968361854553223,,,,,,,
4637900000.0,80.71,1.1699999570846558,12041169408.0,1767.5084396084167,184.0,0.008548378944396973,757760.0,1618.748660326004,1.3204715099135456e-14,0.0,2.2732253074645996,-0.022732265293598175,0.022914595901966095,-0.02273225225508213,-1.30385160446167e-08,0.0,-0.00888107717037201,0.21391935646533966,0.8490339886296361,0.3844311535358429,0.5095968842506409,0.3755500316619873,0.5505674481391907,2.3173863887786865,0.9968879222869873,,,,,,,
4637900000.0,83.13,1.059999942779541,12041169408.0,1817.726094524381,185.0,0.009062830358743668,761856.0,1621.002025127411,1.3038181645441682e-14,0.0,2.275020122528076,-0.022750193253159523,0.01645606756210327,-0.02275020070374012,7.450580596923828e-09,0.0,0.00626515643671155,0.18133093416690826,0.8751836492659786,0.342687726020813,0.46829354763031006,0.34895288944244385,0.5132585167884827,2.2533648014068604,0.9969334602355957,,,,,,,
4637900000.0,83.48,1.190000057220459,12041169408.0,1804.7533219584684,186.0,0.010084569454193115,765952.0,1623.2715873718262,1.3334819359833716e-14,0.0,2.2752931118011475,-0.022752951830625534,0.012737683951854706,-0.022752931341528893,-1.955777406692505e-08,0.0,0.030775263905525208,0.1566341072320938,0.8982258958929302,0.3694482743740082,0.48626458644866943,0.4002235531806946,0.49098435044288635,2.269562244415283,0.9969866275787354,,,,,,,
4637900000.0,87.5,1.25,12041169408.0,1784.594591556892,187.0,0.00892108865082264,770048.0,1625.5667865276337,1.1910611386056758e-14,0.0,2.336637020111084,-0.023366354405879974,0.021415550261735916,-0.023366369307041168,1.4901161193847656e-08,0.0,0.011119477450847626,0.20668305456638336,0.8445290285927748,0.36637815833091736,0.482330322265625,0.3774976432323456,0.5241796970367432,2.295199155807495,0.9967479705810547,,,,,,,
4637900000.0,89.38,1.159999966621399,12041169408.0,1765.3293442203674,188.0,0.008428218774497509,774144.0,1627.8870334625244,1.4621984179008507e-14,0.0,2.267119884490967,-0.022671207785606384,0.025270450860261917,-0.022671198472380638,-9.313225746154785e-09,0.0,0.027536872774362564,0.2231474369764328,0.8258563860624186,0.3327093720436096,0.49358245730400085,0.3602462410926819,0.5347343683242798,2.320246934890747,0.9968063831329346,,,,,,,
4637900000.0,83.86,1.2000000476837158,12041169408.0,1755.4279137438689,189.0,0.012488441541790962,778240.0,1630.2203676700592,1.3277573485126482e-14,0.0,2.272749185562134,-0.022727476432919502,0.012008407153189182,-0.022727491334080696,1.4901161193847656e-08,0.0,0.04056648910045624,0.1495882272720337,0.9156556933718523,0.4060150682926178,0.4974949061870575,0.44658154249191284,0.5150738954544067,2.33333420753479,0.9970517158508301,,,,,,,
4637900000.0,85.05,1.2200000286102295,12041169408.0,1735.8010979076062,190.0,0.007265693508088589,782336.0,1632.5800850391388,1.2947976024690888e-14,0.0,2.2741851806640625,-0.022741850465536118,0.04506487026810646,-0.022741850465536118,0.0,0.0,-0.04661655053496361,0.2966110408306122,0.7549130381387822,0.3951037526130676,0.49408724904060364,0.3484871983528137,0.5991384983062744,2.35971736907959,0.9968068599700928,,,,,,,
4637900000.0,85.17,1.0800000429153442,12041169408.0,1754.3876552256845,191.0,0.009813577868044376,786432.0,1634.914802789688,1.2616643840779318e-14,0.0,2.3065950870513916,-0.0230659618973732,0.02282729744911194,-0.023065950721502304,-1.1175870895385742e-08,0.0,0.02175409533083439,0.21258503198623657,0.7836057731236249,0.36305350065231323,0.4306356608867645,0.3848075866699219,0.45699331164360046,2.3347177505493164,0.9967472553253174,,,,,,,
,,,,,,,,,,,,,,,,,,,,,,,,,,0.0027640536427497864,0.0271303690969944,0.0224112831056118,0.0027640536427497864,0.0271303690969944,0.0224112831056118,
,,,,,,,,,,,,,,,,,,,,,,,,,,0.002003939589485526,0.02215641923248768,0.020440608263015747,0.002003939589485526,0.02215641923248768,0.020440608263015747,
,,,,,,,,,,,,,,,,,,,,,,,,,,0.0015266815898939967,0.02023967355489731,0.017902152612805367,0.0015266815898939967,0.02023967355489731,0.017902152612805367,
,,,,,,,,,,,,,,,,,,,,,,,,,,0.0018141849432140589,0.019034573808312416,0.016968347132205963,0.0018141849432140589,0.019034573808312416,0.016968347132205963,
,,,,,,,,,,,,,,,,,,,,,,,,,,0.0017336740856990218,0.018622344359755516,0.01671566069126129,0.0017336740856990218,0.018622344359755516,0.01671566069126129,
,,,,,,,,,,,,,,,,,,,,,,,,,,0.0018485421314835548,0.018093565478920937,0.016153834760189056,0.0018485421314835548,0.018093565478920937,0.016153834760189056,
,,,,,,,,,,,,,,,,,,,,,,,,,,,,,,,,-0.45
4637920000.0,87.14,1.2799999713897705,11990521856.0,17.06010435123658,192.0,0.010335303843021393,790528.0,1875.007120847702,1.2163881013549371e-14,0.0,2.2973103523254395,-0.022973109036684036,0.008081203326582909,-0.02297310344874859,-5.587935447692871e-09,0.0,0.03270060196518898,0.12286888808012009,0.9412935633567888,0.39630332589149475,0.48541662096977234,0.42900392413139343,0.507106363773346,240.09231805801392,0.9971096515655518,,,,,,,
4637920000.0,83.89,1.159999966621399,12041169408.0,1780.405440579086,193.0,0.007296602241694927,794624.0,1877.3077204227448,1.3690437672408962e-14,0.0,2.2933192253112793,-0.022933192551136017,0.023825712502002716,-0.022933192551136017,0.0,0.0,0.007583627011626959,0.21818692982196808,0.8405889717285737,0.33255788683891296,0.4718523919582367,0.34014150500297546,0.546474039554596,2.3005995750427246,0.9968750476837158,,,,,,,
4637920000.0,82.92,0.9200000166893005,12041169408.0,1776.617976553221,194.0,0.009006325155496597,798720.0,1879.6132245063782,1.2590622988639666e-14,0.0,2.281167507171631,-0.022811682894825935,0.02089722827076912,-0.02281167544424534,-7.450580596923828e-09,0.0,0.025229502469301224,0.20289894938468933,0.8737250182440911,0.42890864610671997,0.5023204684257507,0.4541381597518921,0.5709803104400635,2.305504083633423,0.996894121170044,,,,,,,
4637920000.0,84.48,1.1200000047683716,12041169408.0,1832.8218196645355,195.0,0.010550528764724731,802816.0,1881.8480298519135,1.376156133492401e-14,0.0,2.2660880088806152,-0.022660886868834496,0.006968995556235313,-0.0226608794182539,-7.450580596923828e-09,0.0,0.010688991285860538,0.11758874356746674,0.9452009454810748,0.4272353947162628,0.46843063831329346,0.4379243552684784,0.5023185014724731,2.2348053455352783,0.996819019317627,,,,,,,
4637920000.0,79.81,1.2300000190734863,12041169408.0,1760.101933422152,196.0,0.009202859364449978,806912.0,1884.175167798996,1.3001752452446169e-14,0.0,2.253084659576416,-0.02253085747361183,0.018915636464953423,-0.022530846297740936,-1.1175870895385742e-08,0.0,0.03316707909107208,0.1916773021221161,0.8391784837863827,0.31382104754447937,0.46481749415397644,0.34698814153671265,0.4779677093029022,2.3271379470825195,0.9970541000366211,,,,,,,
4637920000.0,82.1,1.159999966621399,12041169408.0,1762.4302995056644,197.0,0.011261899024248123,811008.0,1886.499231338501,1.4911682999496634e-14,0.0,2.1778550148010254,-0.021778549998998642,0.008411365561187267,-0.021778549998998642,0.0,0.0,0.009140565991401672,0.12939578294754028,0.9496440006024248,0.4919014573097229,0.5554447770118713,0.5010420680046082,0.5766264200210571,2.324063539505005,0.9967899322509766,,,,,,,
4637920000.0,85.2,1.25,12041169408.0,1777.4719732023884,198.0,0.009056471288204193,815104.0,1888.803627729416,1.3723397418452521e-14,0.0,2.2198143005371094,-0.022198136895895004,0.013253165408968925,-0.022198142483830452,5.587935447692871e-09,0.0,0.029159817844629288,0.16019457578659058,0.911671777754353,0.41294562816619873,0.5141556859016418,0.4421054720878601,0.539011538028717,2.304396390914917,0.9965717792510986,,,,,,,
4637920000.0,87.58,1.3700000047683716,12041169408.0,1759.3348049867998,199.0,0.01300179585814476,819200.0,1891.131780385971,1.5334955527634975e-14,0.0,2.1693782806396484,-0.02169378288090229,0.013852330856025219,-0.02169378288090229,0.0,0.0,0.01911129802465439,0.16536656022071838,0.9202215910541875,0.5516247749328613,0.5636828541755676,0.5707361102104187,0.58547043800354,2.328152656555176,0.99696946144104,,,,,,,
4637920000.0,86.0,1.340000033378601,12041169408.0,1752.4463218952187,200.0,0.010107221081852913,823296.0,1893.4690845012665,1.644517855226013e-14,0.0,2.1315035820007324,-0.021315034478902817,0.005861571058630943,-0.021315034478902817,4.656612873077393e-10,0.0,0.003259513759985566,0.1082376018166542,0.9612264781311372,0.45921629667282104,0.5241162180900574,0.4624757766723633,0.549680769443512,2.33730411529541,0.9966819286346436,,,,,,,
4637920000.0,83.66,1.2200000286102295,12041169408.0,1751.681207090876,201.0,0.010119454935193062,827392.0,1895.8074095249176,1.4524839664353806e-14,0.0,2.2302775382995605,-0.0223027803003788,0.011708044447004795,-0.022302774712443352,-6.05359673500061e-09,0.0,-0.005191340111196041,0.15295374393463135,0.9131541316270329,0.49863889813423157,0.4867929220199585,0.49344754219055176,0.51902174949646,2.338325023651123,0.996694803237915,,,,,,,
4637920000.0,82.81,1.2100000381469727,12041169408.0,1781.4426169943868,202.0,0.009791171178221703,831488.0,1898.106669664383,1.4512696600021968e-14,0.0,2.176854133605957,-0.021768534556031227,0.01876678131520748,-0.021768540143966675,5.587935447692871e-09,0.0,0.0027825748547911644,0.19373947381973267,0.9002723903782743,0.5327267646789551,0.5870742201805115,0.5355092883110046,0.6134941577911377,2.299260139465332,0.9968461990356445,,,,,,,
4637920000.0,86.71,1.3200000524520874,12041169408.0,1776.5635956183694,203.0,0.010144732892513275,835584.0,1900.4122443199158,1.4667086989383904e-14,0.0,2.2012388706207275,-0.02201239764690399,0.03238438814878464,-0.022012388333678246,-9.313225746154785e-09,0.0,0.004913754295557737,0.2544807195663452,0.8104662222244647,0.5036816596984863,0.5375975370407104,0.50859534740448,0.5845364332199097,2.305574655532837,0.996840238571167,,,,,,,
4637920000.0,89.33,1.3600000143051147,12041169408.0,1760.9599769084934,204.0,0.011020497418940067,839680.0,1902.738248348236,1.5437304212717606e-14,0.0,2.21590518951416,-0.022159039974212646,0.02686850167810917,-0.022159051150083542,1.1175870895385742e-08,0.0,-0.004369853995740414,0.23179952800273895,0.8844761973950157,0.6681417226791382,0.657329261302948,0.6637718677520752,0.6819881200790405,2.3260040283203125,0.9966986179351807,,,,,,,
4637920000.0,89.99,1.2200000286102295,12041169408.0,1784.0039858981615,205.0,0.009309083223342896,843776.0,1905.0342073440552,1.5090359517522245e-14,0.0,2.2372448444366455,-0.02237243764102459,0.02758440375328064,-0.022372448816895485,1.1175870895385742e-08,0.0,0.0037652719765901566,0.23487889766693115,0.8673625394672746,0.5275969505310059,0.596699059009552,0.5313622355461121,0.6449275612831116,2.295958995819092,0.9969148635864258,,,,,,,
4637920000.0,89.62,1.3300000429153442,12041169408.0,1785.9459107920502,206.0,0.011392497457563877,847872.0,1907.3276698589325,1.4967194150727892e-14,0.0,2.2664825916290283,-0.022664835676550865,0.008324968628585339,-0.02266482450067997,-1.1175870895385742e-08,0.0,-0.018392011523246765,0.1277327537536621,0.9567501501274001,0.5859677195549011,0.6181739568710327,0.5675756931304932,0.614200234413147,2.2934625148773193,0.9966976642608643,,,,,,,
4637920000.0,88.64,1.340000033378601,12041169408.0,1828.5350261850765,207.0,0.010024558752775192,851968.0,1909.5677144527435,1.5645471029834823e-14,0.0,2.249903678894043,-0.022499043494462967,0.0308085810393095,-0.02249903604388237,-7.450580596923828e-09,0.0,-0.00979398749768734,0.2480650395154953,0.8449694747029448,0.5473542213439941,0.6425841450691223,0.537560224533081,0.6300238370895386,2.240044593811035,0.9967947006225586,,,,,,,
4637920000.0,87.63,1.2300000190734863,12041169408.0,1803.180526509632,208.0,0.00986391305923462,856064.0,1911.839256286621,1.3856971126102735e-14,0.0,2.2981066703796387,-0.022981062531471252,0.030327556654810905,-0.02298106625676155,3.725290298461914e-09,0.0,-0.004777313210070133,0.24626632034778595,0.857060505806658,0.5938411951065063,0.6745309829711914,0.5890638828277588,0.6513717174530029,2.2715418338775635,0.9968209266662598,,,,,,,
4637920000.0,86.43,1.1799999475479126,12041169408.0,1785.2768596844837,209.0,0.010395887307822704,860160.0,1914.133578300476,1.4009626791988694e-14,0.0,2.3339412212371826,-0.02333940379321575,0.03888625651597977,-0.02333941124379635,7.450580596923828e-09,0.0,-0.01584923267364502,0.2784605026245117,0.8207927438630965,0.5391666889190674,0.6263012886047363,0.5233175158500671,0.6577877998352051,2.2943220138549805,0.9966943264007568,,,,,,,
4637920000.0,83.66,1.1399999856948853,12041169408.0,1782.6822395557165,210.0,0.008500592783093452,864256.0,1916.43123960495,1.456126885734932e-14,0.0,2.3094379901885986,-0.023094387724995613,0.04044577479362488,-0.023094380274415016,-7.450580596923828e-09,0.0,-0.017592640593647957,0.28390443325042725,0.8037773274372342,0.36520224809646606,0.6137285232543945,0.34760960936546326,0.6409107446670532,2.297661304473877,0.9968967437744141,,,,,,,
4637920000.0,84.43,1.1399999856948853,12041169408.0,1757.8124444860084,211.0,0.009553822688758373,868352.0,1918.7614085674286,1.1976530878143876e-14,0.0,2.3562514781951904,-0.023562511429190636,0.02566235326230526,-0.023562515154480934,3.725290298461914e-09,0.0,-0.013767028227448463,0.2261584848165512,0.7903662907750795,0.4350760579109192,0.5064377188682556,0.4213090240955353,0.49394920468330383,2.3301689624786377,0.9968976974487305,,,,,,,
4637920000.0,85.24,1.159999966621399,12041169408.0,1772.2750711520216,212.0,0.008870866149663925,872448.0,1921.0725622177124,1.355512924128277e-14,0.0,2.3809664249420166,-0.02380966767668724,0.028670338913798332,-0.023809663951396942,-3.725290298461914e-09,0.0,-0.003576141782104969,0.23946166038513184,0.8116285189211078,0.5017285346984863,0.5014583468437195,0.49815237522125244,0.5517322421073914,2.3111536502838135,0.9968883991241455,,,,,,,
4637920000.0,88.13,1.0800000429153442,12041169408.0,1811.6107824773512,213.0,0.009055531583726406,876544.0,1923.333533525467,1.0807327255335508e-14,0.0,2.4414138793945312,-0.024414140731096268,0.04847580939531326,-0.02441413886845112,-1.862645149230957e-09,0.0,0.006789227947592735,0.3113345205783844,0.7059045032949434,0.5394764542579651,0.5056125521659851,0.546265721321106,0.5740941762924194,2.2609713077545166,0.9967777729034424,,,,,,,
4637920000.0,87.86,1.0099999904632568,12041169408.0,1797.8085388393436,214.0,0.008194353431463242,880640.0,1925.611862897873,1.1808262700974126e-14,0.0,2.384093761444092,-0.023840952664613724,0.03580741584300995,-0.02384093776345253,-1.4901161193847656e-08,0.0,0.014889026060700417,0.26722756028175354,0.7253415373880782,0.32909443974494934,0.424459308385849,0.3439834415912628,0.5098997354507446,2.278329372406006,0.9971010684967041,,,,,,,
4637920000.0,84.04,1.059999942779541,12041169408.0,1834.4712570441616,215.0,0.009600470773875713,884736.0,1927.8446588516235,1.2396333959330263e-14,0.0,2.38649320602417,-0.02386491745710373,0.027501601725816727,-0.023864932358264923,1.4901161193847656e-08,0.0,0.017540618777275085,0.2338992953300476,0.7925922860064456,0.3771951496601105,0.4410770833492279,0.39473575353622437,0.5135898590087891,2.2327959537506104,0.9968867301940918,,,,,,,
4637920000.0,87.51,1.2799999713897705,12041169408.0,1822.3333622561127,216.0,0.011883584782481194,888832.0,1930.0923266410828,1.2975731600306517e-14,0.0,2.3861727714538574,-0.023861730471253395,0.022309426218271255,-0.023861726745963097,-3.725290298461914e-09,0.0,0.03724668174982071,0.20794732868671417,0.8342329520847213,0.41831880807876587,0.4505210816860199,0.45556551218032837,0.510745108127594,2.2476677894592285,0.9970533847808838,,,,,,,
4637920000.0,86.43,1.3300000429153442,12041169408.0,1828.3283634633783,217.0,0.010675338096916676,892928.0,1932.3326244354248,1.2219392164780629e-14,0.0,2.3869528770446777,-0.023869521915912628,0.015471057966351509,-0.023869527503848076,6.51925802230835e-09,0.0,0.03964774310588837,0.17139820754528046,0.8902375782636343,0.48249462246894836,0.4783523976802826,0.5221423506736755,0.5173439979553223,2.240297794342041,0.9970390796661377,,,,,,,
4637920000.0,80.57,1.159999966621399,12041169408.0,1801.7890269373706,218.0,0.009114721789956093,897024.0,1934.6059205532074,1.2847362063084233e-14,0.0,2.3863978385925293,-0.023863960057497025,0.011251142248511314,-0.023863978683948517,1.862645149230957e-08,0.0,0.03314697742462158,0.14631742238998413,0.9124360438960731,0.3846908211708069,0.4570382237434387,0.41783779859542847,0.4944625198841095,2.2732961177825928,0.9982197284698486,,,,,,,
4637920000.0,81.1,1.1100000143051147,12041169408.0,1797.6123366114373,219.0,0.011757133528590202,901120.0,1936.8844985961914,1.3260226250366713e-14,0.0,2.3303585052490234,-0.02330358885228634,0.016847090795636177,-0.02330358512699604,-3.725290298461914e-09,0.0,0.03279514238238335,0.18062840402126312,0.8832973000601756,0.37347760796546936,0.4596823453903198,0.4062727689743042,0.5287442207336426,2.278578042984009,0.9967403411865234,,,,,,,
4637920000.0,85.49,1.2100000381469727,12041169408.0,1703.572649498067,220.0,0.00913558341562748,905216.0,1939.288857460022,1.272940086671781e-14,0.0,2.338611125946045,-0.023386117070913315,0.01529854815453291,-0.023386111482977867,-5.587935447692871e-09,0.0,0.028275687247514725,0.1726408451795578,0.8659278183494049,0.37758147716522217,0.4367394745349884,0.4058571755886078,0.47149187326431274,2.4043588638305664,0.9970464706420898,,,,,,,
4637920000.0,92.01,1.440000057220459,12041169408.0,1723.2058195450743,221.0,0.011785581707954407,909312.0,1941.665822505951,1.1733669591507123e-14,0.0,2.3710920810699463,-0.023710934445261955,0.013029951602220535,-0.02371091954410076,-1.4901161193847656e-08,0.0,0.0529310405254364,0.15252503752708435,0.9172078078542953,0.46818089485168457,0.5052326917648315,0.5211119651794434,0.5300861597061157,2.376965045928955,0.9966385364532471,,,,,,,
4637920000.0,93.16,1.3899999856948853,12041169408.0,1764.6977622886764,222.0,0.009334076195955276,913408.0,1943.9868998527527,1.3176959523519827e-14,0.0,2.343310832977295,-0.023433111608028412,0.018242381513118744,-0.023433107882738113,-3.725290298461914e-09,0.0,0.02105601504445076,0.18986892700195312,0.841592510173949,0.4259926676750183,0.4345015287399292,0.44704869389533997,0.47705239057540894,2.321077346801758,0.9968874454498291,,,,,,,
4637920000.0,97.82,1.3200000524520874,12041169408.0,1750.1640342016033,223.0,0.010404109954833984,917504.0,1946.3272519111633,1.2830014828324465e-14,0.0,2.327197551727295,-0.023271959275007248,0.010235903784632683,-0.023271974176168442,1.4901161193847656e-08,0.0,0.02336844615638256,0.14117573201656342,0.9228368922872334,0.46095409989356995,0.46968337893486023,0.48432251811027527,0.5082240104675293,2.3403520584106445,0.9969172477722168,,,,,,,
,,,,,,,,,,,,,,,,,,,,,,,,,,0.005312110297381878,0.028264693915843964,0.023099595680832863,0.005312110297381878,0.028264693915843964,0.023099595680832863,
,,,,,,,,,,,,,,,,,,,,,,,,,,0.002700537908822298,0.023108232766389847,0.021834932267665863,0.002700537908822298,0.023108232766389847,0.021834932267665863,
,,,,,,,,,,,,,,,,,,,,,,,,,,0.0023681269958615303,0.021419508382678032,0.019776998087763786,0.0023681269958615303,0.021419508382678032,0.019776998087763786,
,,,,,,,,,,,,,,,,,,,,,,,,,,0.002108784392476082,0.020094268023967743,0.018353847786784172,0.002108784392476082,0.020094268023967743,0.018353847786784172,
,,,,,,,,,,,,,,,,,,,,,,,,,,0.0016858355375006795,0.019229261204600334,0.017604056745767593,0.0016858355375006795,0.019229261204600334,0.017604056745767593,
,,,,,,,,,,,,,,,,,,,,,,,,,,0.0018950599478557706,0.019385822117328644,0.017583437263965607,0.0018950599478557706,0.019385822117328644,0.017583437263965607,
,,,,,,,,,,,,,,,,,,,,,,,,,,,,,,,,0.1
4637920000.0,87.77,1.3700000047683716,11990521856.0,17.052663848964148,224.0,0.013418804854154587,921600.0,2186.5243282318115,1.396799342856525e-14,0.0,2.2598390579223633,-0.02259838953614235,0.011069366708397865,-0.02259838953614235,0.0,0.0,0.03801605850458145,0.14386996626853943,0.947954882278487,0.6278495788574219,0.5982653498649597,0.6658656597137451,0.6306379437446594,240.1970763206482,0.9964580535888672,,,,,,,
4637920000.0,86.17,1.3899999856948853,12041169408.0,1785.534955646579,225.0,0.012020638212561607,925696.0,2188.818318605423,1.2866444021319978e-14,0.0,2.2730607986450195,-0.022730588912963867,0.01262729987502098,-0.02273060753941536,1.862645149230957e-08,0.0,0.05205865949392319,0.1501665860414505,0.9474421245626288,0.6135918498039246,0.6284030079841614,0.665650486946106,0.6550197005271912,2.29399037361145,0.9966006278991699,,,,,,,
4637920000.0,88.42,1.5,12041169408.0,1742.7696253026918,226.0,0.011147547513246536,929792.0,2191.1686005592346,1.3201245652183502e-14,0.0,2.2599129676818848,-0.022599130868911743,0.020411163568496704,-0.022599129006266594,-1.862645149230957e-09,0.0,-0.003311359789222479,0.20204287767410278,0.8659825972401456,0.5357189178466797,0.5037252306938171,0.5324075818061829,0.551903247833252,2.3502819538116455,0.9967496395111084,,,,,,,
4637920000.0,92.07,1.3700000047683716,12041169408.0,1753.515957320852,227.0,0.010451927781105042,933888.0,2193.504478931427,1.3340023530261647e-14,0.0,2.294206142425537,-0.0229420717805624,0.01833614706993103,-0.022942060604691505,-1.1175870895385742e-08,0.0,-0.009603409096598625,0.19128252565860748,0.8909225173818219,0.5790101289749146,0.5272700786590576,0.5694067478179932,0.5791722536087036,2.335878372192383,0.9965596199035645,,,,,,,
4637920000.0,90.41,1.1799999475479126,12041169408.0,1776.9174987885735,228.0,0.008338061161339283,937984.0,2195.8095943927765,1.588139342256767e-14,0.0,2.2117245197296143,-0.022117244079709053,0.012672587297856808,-0.022117244079709053,0.0,0.0,0.007697660475969315,0.15903489291667938,0.9315259091203324,0.5506491661071777,0.5664176344871521,0.5583468675613403,0.6077560186386108,2.3051154613494873,0.996859073638916,,,,,,,
4637920000.0,88.65,1.2000000476837158,12041169408.0,1750.8948112886899,229.0,0.011012246832251549,942080.0,2198.1489696502686,1.42785089307651e-14,0.0,2.2016983032226562,-0.0220169797539711,0.014430154114961624,-0.02201698161661625,1.862645149230957e-09,0.0,0.003049294464290142,0.1698765903711319,0.9380516143613914,0.6473178267478943,0.6683638095855713,0.6503671407699585,0.6825249195098877,2.3393752574920654,0.9970784187316895,,,,,,,
4637920000.0,92.3,1.4299999475479126,12041169408.0,1721.9572351971942,230.0,0.011379116214811802,946176.0,2200.527658224106,1.420738526825005e-14,0.0,2.1891162395477295,-0.0218911562114954,0.01094176433980465,-0.021891161799430847,5.587935447692871e-09,0.0,-0.0025274474173784256,0.14792728424072266,0.9416108778518386,0.6133984327316284,0.5989795923233032,0.6108710765838623,0.6121845245361328,2.3786885738372803,0.99717116355896,,,,,,,
4637920000.0,91.23,1.350000023841858,12041169408.0,1735.2891393506372,231.0,0.008546624332666397,950272.0,2202.8880717754364,1.4264631142957285e-14,0.0,2.215182065963745,-0.02215181291103363,0.015634343028068542,-0.022151820361614227,7.450580596923828e-09,0.0,-0.010776534676551819,0.1765224039554596,0.8962999855690551,0.550225019454956,0.5460407137870789,0.5394485592842102,0.5481640100479126,2.3604135513305664,0.9967625141143799,,,,,,,
4637920000.0,91.42,1.2000000476837158,12041169408.0,1810.3283267222828,232.0,0.009982557967305183,954368.0,2205.1506447792053,1.588139342256767e-14,0.0,2.1607441902160645,-0.021607449278235435,0.02955828607082367,-0.02160744182765484,-7.450580596923828e-09,0.0,0.0072677466087043285,0.24306002259254456,0.8929744720106583,0.7424567937850952,0.6866361498832703,0.7497245669364929,0.7429675459861755,2.262573003768921,0.9971458911895752,,,,,,,
4637920000.0,96.81,1.3200000524520874,12041169408.0,1744.2306121910262,233.0,0.011777875013649464,958464.0,2207.4989581108093,1.6590895324242183e-14,0.0,2.137965679168701,-0.021379655227065086,0.018354367464780807,-0.021379657089710236,1.862645149230957e-09,0.0,0.0016254736110568047,0.19161173701286316,0.9240171666374732,0.6943269968032837,0.6943199038505554,0.6959524750709534,0.6951273083686829,2.348313331604004,0.9968349933624268,,,,,,,
4637920000.0,97.84,1.559999942779541,12041169408.0,1814.6931887116773,234.0,0.01250198669731617,962560.0,2209.7560889720917,1.7468665403086447e-14,0.0,2.1320414543151855,-0.021320410072803497,0.014753630384802818,-0.021320413798093796,2.7939677238464355e-09,0.0,-0.020882973447442055,0.1705234944820404,0.9297760192590803,0.7751094102859497,0.6419911980628967,0.7542264461517334,0.6434895396232605,2.2571308612823486,0.9973406791687012,,,,,,,
4637920000.0,97.31,1.6699999570846558,12041169408.0,1730.4309666101838,235.0,0.01394440233707428,966656.0,2212.1231293678284,1.6764367671839864e-14,0.0,2.105111598968506,-0.021051105111837387,0.025354895740747452,-0.021051116287708282,1.1175870895385742e-08,0.0,-0.018897606059908867,0.2244214117527008,0.9101133887023277,0.9680465459823608,0.7324094176292419,0.949148952960968,0.7485430240631104,2.3670403957366943,0.9967033863067627,,,,,,,
4637920000.0,92.84,1.5499999523162842,12041169408.0,1818.7835383379834,236.0,0.009485950693488121,970752.0,2214.375184059143,2.0077689510955565e-14,0.0,2.069544792175293,-0.020695451647043228,0.01957138255238533,-0.02069544792175293,-3.725290298461914e-09,0.0,-0.009726382791996002,0.19763021171092987,0.9033611380033211,0.6315127611160278,0.6199775338172913,0.62178635597229,0.635736882686615,2.2520546913146973,0.9967174530029297,,,,,,,
4637920000.0,91.74,1.3600000143051147,12041169408.0,1783.8246763184984,237.0,0.01021366473287344,974848.0,2216.6713738441467,1.7992551892831443e-14,0.0,2.0869131088256836,-0.02086913399398327,0.02627219259738922,-0.02086913026869297,-3.725290298461914e-09,0.0,-0.00041936803609132767,0.22925321757793427,0.9092081552223029,0.7924126386642456,0.7247496843338013,0.791993260383606,0.7608376741409302,2.296189785003662,0.9970591068267822,,,,,,,
4637920000.0,93.3,1.2999999523162842,12041169408.0,1777.50636347985,238.0,0.010045421309769154,978944.0,2218.9757256507874,1.9758500391375833e-14,0.0,2.041278839111328,-0.020412787795066833,0.030823543667793274,-0.020412787795066833,0.0,0.0,-0.009104873985052109,0.24815161526203156,0.8781916291985017,0.7325133681297302,0.668170690536499,0.7234085202217102,0.7110146880149841,2.304351806640625,0.9966557025909424,,,,,,,
4637920000.0,101.44,1.4800000190734863,12041169408.0,1793.9596754892284,239.0,0.012207692489027977,983040.0,2221.258943080902,2.1696186514041926e-14,0.0,2.0046541690826416,-0.0200465340167284,0.03116842731833458,-0.020046541467308998,7.450580596923828e-09,0.0,0.00558887654915452,0.24964141845703125,0.8876380900958787,0.7928184270858765,0.7248930931091309,0.798407256603241,0.744744062423706,2.283217430114746,0.9969873428344727,,,,,,,
4637920000.0,97.89,1.440000057220459,12041169408.0,1744.9552010319487,240.0,0.01113862544298172,987136.0,2223.6062812805176,2.0089832575287403e-14,0.0,2.0157008171081543,-0.020157014951109886,0.03860216215252876,-0.02015700750052929,-7.450580596923828e-09,0.0,-0.014192169532179832,0.2775278687477112,0.854643592135065,0.7479106187820435,0.6808298230171204,0.7337183952331543,0.7279296517372131,2.3473381996154785,0.9964768886566162,,,,,,,
4637920000.0,97.55,1.590000033378601,12041169408.0,1727.9282077576922,241.0,0.011691133491694927,991232.0,2225.9767501354218,2.033616330887611e-14,0.0,2.005357503890991,-0.02005358226597309,0.011664099991321564,-0.020053574815392494,-7.450580596923828e-09,0.0,0.007802550680935383,0.1525549292564392,0.938810092313234,0.7342427968978882,0.6217324733734131,0.7420454025268555,0.6167176365852356,2.370468854904175,0.9968900680541992,,,,,,,
4637920000.0,102.35,1.559999942779541,12041169408.0,1822.0127310662217,242.0,0.010083171539008617,995328.0,2228.2248134613037,2.0641474640648028e-14,0.0,1.976770043373108,-0.01976769231259823,0.02220807783305645,-0.019767699763178825,7.450580596923828e-09,0.0,0.00934300571680069,0.21056990325450897,0.9089679185567462,0.7255299687385559,0.672173261642456,0.7348729372024536,0.6979093551635742,2.248063325881958,0.9969453811645508,,,,,,,
4637920000.0,107.21,1.600000023841858,12041169408.0,1739.5847326481937,243.0,0.011358015239238739,999424.0,2230.579398393631,1.8644807919798723e-14,0.0,2.0717217922210693,-0.020717207342386246,0.017516691237688065,-0.020717216655611992,9.313225746154785e-09,0.0,0.0069073219783604145,0.1870674043893814,0.9027196965856896,0.707105815410614,0.6021787524223328,0.7140130996704102,0.59977126121521,2.3545849323272705,0.9969775676727295,,,,,,,
4637920000.0,102.36,1.409999966621399,12041169408.0,1795.0248995253805,244.0,0.009024059399962425,1003520.0,2232.8612608909607,1.860837872680321e-14,0.0,1.9876114130020142,-0.019876116886734962,0.03850070759654045,-0.019876113161444664,-3.725290298461914e-09,0.0,0.00019865762442350388,0.2775251269340515,0.849129307342131,0.5749216079711914,0.6389942765235901,0.575120210647583,0.7144960165023804,2.281862497329712,0.996793270111084,,,,,,,
4637920000.0,93.04,1.3200000524520874,12041169408.0,1722.413693834524,245.0,0.013186362572014332,1007616.0,2235.239319086075,2.079239558305801e-14,0.0,1.9083747863769531,-0.019083740189671516,0.007809106260538101,-0.019083747640252113,7.450580596923828e-09,0.0,0.011037478223443031,0.12449967861175537,0.9599830065505406,0.5838260650634766,0.6000099778175354,0.5948634743690491,0.622366189956665,2.3780581951141357,0.9968540668487549,,,,,,,
4637920000.0,86.32,1.3899999856948853,12041169408.0,1766.2936363183992,246.0,0.010125648230314255,1011712.0,2237.558299303055,1.9182572197351533e-14,0.0,2.0496387481689453,-0.020496385172009468,0.03817708045244217,-0.020496387034654617,1.862645149230957e-09,0.0,-0.005386172793805599,0.27630382776260376,0.828380231304846,0.6389788389205933,0.5940617918968201,0.6335927248001099,0.6669652462005615,2.3189802169799805,0.9968950748443604,,,,,,,
4637920000.0,92.43,1.4900000095367432,12041169408.0,1776.1756768981575,247.0,0.011946229264140129,1015808.0,2239.8643774986267,1.9083692959220855e-14,0.0,2.0148940086364746,-0.02014894410967827,0.013481676578521729,-0.02014894038438797,-3.725290298461914e-09,0.0,0.012903320603072643,0.16371743381023407,0.9261257148165932,0.6329337358474731,0.5868988037109375,0.6458370685577393,0.6023491621017456,2.3060781955718994,0.996891975402832,,,,,,,
4637920000.0,92.03,1.440000057220459,12041169408.0,1760.1408844703574,248.0,0.01286250725388527,1019904.0,2242.191463947296,1.8903281717719267e-14,0.0,1.9596469402313232,-0.019596483558416367,0.03229285404086113,-0.019596468657255173,-1.4901161193847656e-08,0.0,0.012852285988628864,0.25384294986724854,0.8395958470027641,0.5863267779350281,0.5893542766571045,0.5991790294647217,0.633807361125946,2.3270864486694336,0.9966640472412109,,,,,,,
4637920000.0,89.43,1.409999966621399,12041169408.0,1804.5044243781372,249.0,0.009974155575037003,1024000.0,2244.461339235306,1.7975204658071675e-14,0.0,2.0346884727478027,-0.020346885547041893,0.02704807184636593,-0.020346883684396744,-1.862645149230957e-09,0.0,-0.0018455472309142351,0.23260684311389923,0.868998003220064,0.6281423568725586,0.6112467646598816,0.6262967586517334,0.6426634192466736,2.2698752880096436,0.9966609477996826,,,,,,,
4637920000.0,99.31,1.5299999713897705,12041169408.0,1772.0443724114728,250.0,0.013245669193565845,1028096.0,2246.7727937698364,1.7560605747313218e-14,0.0,2.073765277862549,-0.020737651735544205,0.02846294641494751,-0.020737651735544205,0.0,0.0,0.025466887280344963,0.23725740611553192,0.7869265880291898,0.6133436560630798,0.4883010685443878,0.6388105154037476,0.5139905214309692,2.3114545345306396,0.9968006610870361,,,,,,,
4637920000.0,98.1,1.409999966621399,12041169408.0,1809.8940628701725,251.0,0.006902031134814024,1032192.0,2249.03590965271,1.641915770012048e-14,0.0,2.0921225547790527,-0.02092123217880726,0.05016177147626877,-0.02092122472822666,-7.450580596923828e-09,0.0,-0.003780711442232132,0.3167550265789032,0.7034555289672051,0.5050569772720337,0.5185351371765137,0.5012763142585754,0.5816726684570312,2.263115882873535,0.9967985153198242,,,,,,,
4637920000.0,95.67,1.2999999523162842,12041169408.0,1784.863245396462,252.0,0.012000424787402153,1036288.0,2251.3307633399963,1.5419956977957838e-14,0.0,2.1137967109680176,-0.02113797701895237,0.01300294604152441,-0.021137965843081474,-1.1175870895385742e-08,0.0,0.025747422128915787,0.15921416878700256,0.9557775280288101,0.725422203540802,0.7175230383872986,0.7511696219444275,0.7571120262145996,2.294853687286377,0.9967269897460938,,,,,,,
4637920000.0,94.44,1.2999999523162842,12041169408.0,1778.0247695846572,253.0,0.01055414229631424,1040384.0,2253.634443283081,1.4661882818955974e-14,0.0,2.1254587173461914,-0.021254582330584526,0.03519729524850845,-0.021254586055874825,3.725290298461914e-09,0.0,-0.0122669767588377,0.265068382024765,0.8662284332617082,0.658146858215332,0.6868222951889038,0.645879864692688,0.7247297763824463,2.303679943084717,0.9968001842498779,,,,,,,
4637920000.0,86.95,1.2200000286102295,12041169408.0,1760.451111756911,254.0,0.008924651890993118,1044480.0,2255.9611196517944,1.5241280459932227e-14,0.0,2.1230459213256836,-0.021230466663837433,0.03251543268561363,-0.021230459213256836,-6.984919309616089e-09,0.0,-0.014681482687592506,0.2546195983886719,0.8421400659793309,0.5274339914321899,0.5607802867889404,0.5127525329589844,0.640849232673645,2.326676368713379,0.9967498779296875,,,,,,,
4637920000.0,91.95,1.2799999713897705,12041169408.0,1822.9834746032486,255.0,0.013488328084349632,1048576.0,2258.2079858779907,1.616415334915189e-14,0.0,2.1758627891540527,-0.021758630871772766,0.021175818517804146,-0.021758627146482468,-3.725290298461914e-09,0.0,0.005092189181596041,0.2057572454214096,0.9101474752395647,0.6977853775024414,0.6610787510871887,0.7028776407241821,0.6864200830459595,2.246866226196289,0.9969115257263184,,,,,,,
,,,,,,,,,,,,,,,,,,,,,,,,,,0.008940685540437698,0.03368733078241348,0.028347648680210114,0.008940685540437698,0.03368733078241348,0.028347648680210114,
,,,,,,,,,,,,,,,,,,,,,,,,,,0.006182543933391571,0.02756590209901333,0.024836884811520576,0.006182543933391571,0.02756590209901333,0.024836884811520576,
,,,,,,,,,,,,,,,,,,,,,,,,,,0.004778620321303606,0.02471303753554821,0.022784113883972168,0.004778620321303606,0.02471303753554821,0.022784113883972168,
,,,,,,,,,,,,,,,,,,,,,,,,,,0.0040011052042245865,0.023555675521492958,0.021149981766939163,0.0040011052042245865,0.023555675521492958,0.021149981766939163,
