CpuMaxMemory,EpLenMean,EpRewMean,GpuMaxMemory,IPS_total,Iter,Misc/FrameRewMean,Misc/InteractCount,Misc/TimeElapsed,Opt/approxkl,Opt/clipfrac,Opt/entropy,Opt/loss_pi,Opt/loss_vf,Opt/negent,Opt/pg,Opt/pi_kl,VFStats/AdvMean,VFStats/AdvStd,VFStats/EV,VFStats/VpredMean,VFStats/VpredStd,VFStats/VtargMean,VFStats/VtargStd,del_time,wait_optimization,scaled/pol_distance,scaled/vf_aux,scaled/vf_true,unscaled/pol_distance,unscaled/vf_aux,unscaled/vf_true,EvalEpMean
3044332000.0,79.11363636363636,-1.9772727489471436,11965495808.0,1623.1496905930012,0.0,-0.013484271243214607,4096.0,2.523488759994507,2.5118795932144167e-15,0.0,2.707645893096924,-0.027076460421085358,0.173404723405838,-0.02707645855844021,-1.862645149230957e-09,0.0,-0.18388980627059937,0.5595269203186035,0.002684864461930947,-0.02062452957034111,0.014807196334004402,-0.20451432466506958,0.5602795481681824,2.523488759994507,1.0285604000091553,,,,,,,
3094124000.0,76.66666666666667,-2.5959596633911133,12031147008.0,1821.6251866305265,1.0,-0.015599941834807396,8192.0,4.772030353546143,3.0878077872387166e-15,0.0,2.7046737670898438,-0.027046741917729378,0.15871377289295197,-0.02704673632979393,-5.587935447692871e-09,0.0,-0.11835283041000366,0.5509031414985657,0.03870762069033706,-0.3541161119937897,0.10033001005649567,-0.47246891260147095,0.5618849992752075,2.2485415935516357,0.9976317882537842,,,,,,,
3143492000.0,78.95,-3.059999942779541,12031147008.0,1857.2544428772615,2.0,-0.014104416593909264,12288.0,6.977436304092407,3.524958103184872e-15,0.0,2.7019004821777344,-0.027018999680876732,0.17733332514762878,-0.02701900340616703,3.725290298461914e-09,0.0,-0.0026854975149035454,0.5956056118011475,0.14853068011436465,-0.7941098809242249,0.21813155710697174,-0.7967953681945801,0.6454673409461975,2.2054059505462646,0.9976773262023926,,,,,,,
3192596000.0,79.81,-2.8499999046325684,12031147008.0,1818.3684965576688,3.0,-0.01464137528091669,16384.0,9.230005025863647,4.093947403305265e-15,0.0,2.6988072395324707,-0.026988064870238304,0.30513718724250793,-0.0269880723208189,7.450580596923828e-09,0.0,0.12932536005973816,0.7705155611038208,0.07218709662599931,-1.4228167533874512,0.42551395297050476,-1.2934914827346802,0.7999285459518433,2.2525687217712402,0.9974911212921143,,,,,,,
3241964000.0,80.97,-2.309999942779541,12031147008.0,1829.6111273578788,4.0,-0.007223045453429222,20480.0,11.468732118606567,3.851086116668512e-15,0.0,2.6978464126586914,-0.02697848342359066,0.169631227850914,-0.02697846293449402,-2.0489096641540527e-08,0.0,0.12775327265262604,0.5683488249778748,0.16267002668776953,-0.9669190049171448,0.3023124635219574,-0.8391657471656799,0.6211073398590088,2.23872709274292,0.9989275932312012,,,,,,,
3291068000.0,81.85,-2.240000009536743,12031147008.0,1811.739739390116,5.0,-0.01488824374973774,24576.0,13.72954249382019,4.98212582300539e-15,0.0,2.6861467361450195,-0.026861466467380524,0.2032720446586609,-0.026861466467380524,9.313225746154785e-10,0.0,-0.0639406219124794,0.6344714164733887,-0.02510219877432096,-0.7498199343681335,0.2539990246295929,-0.8137605786323547,0.626654863357544,2.260810375213623,0.9973998069763184,,,,,,,
3340172000.0,82.25,-2.75,12031147008.0,1831.7878368361478,6.0,-0.012753207236528397,28672.0,15.965609312057495,5.002942504717112e-15,0.0,2.681525707244873,-0.026815254241228104,0.16609162092208862,-0.026815256103873253,1.862645149230957e-09,0.0,-0.03912890702486038,0.5750938057899475,0.022641499175709012,-0.6324523687362671,0.18603621423244476,-0.6715812683105469,0.5817169547080994,2.2360668182373047,0.9982638359069824,,,,,,,
3389540000.0,81.04,-2.7200000286102295,12031147008.0,1812.5287821845,7.0,-0.012416092678904533,32768.0,18.225435495376587,5.027228633380787e-15,0.0,2.6758077144622803,-0.02675807662308216,0.1490328311920166,-0.02675807662308216,0.0,0.0,-0.06681179255247116,0.54191654920578,0.05849929176361712,-0.48329830169677734,0.13050399720668793,-0.5501101016998291,0.5584986209869385,2.259826183319092,0.9975483417510986,,,,,,,
3438644000.0,78.65,-1.9299999475479126,12031147008.0,1837.483623382724,8.0,-0.007499890401959419,36864.0,20.45457100868225,5.251007961781795e-15,0.0,2.663506031036377,-0.02663506381213665,0.11871740967035294,-0.02663506008684635,-3.725290298461914e-09,0.0,-0.027162235230207443,0.48657462000846863,0.08340439652466702,-0.41809338331222534,0.12153013795614243,-0.4452555775642395,0.5082302689552307,2.229135513305664,0.997718334197998,,,,,,,
3487748000.0,80.12,-1.600000023841858,12031147008.0,1811.723881476079,9.0,-0.010560994036495686,40960.0,22.71540117263794,5.100087019371813e-15,0.0,2.644744873046875,-0.026447435840964317,0.14072591066360474,-0.026447448879480362,1.30385160446167e-08,0.0,-0.04722724109888077,0.5284785628318787,0.023400354424682135,-0.3782114088535309,0.11513074487447739,-0.42543864250183105,0.534772515296936,2.2608301639556885,0.9977579116821289,,,,,,,
3537116000.0,76.51,-1.809999942779541,12031147008.0,1825.779672200975,10.0,-0.01031970139592886,45056.0,24.958826303482056,4.93875773610597e-15,0.0,2.6015892028808594,-0.026015881448984146,0.1304561197757721,-0.026015890762209892,8.381903171539307e-09,0.0,-0.04541923105716705,0.5088345408439636,0.04941841178037709,-0.3495326638221741,0.10782646387815475,-0.3949519097805023,0.5218934416770935,2.243425130844116,0.9977905750274658,,,,,,,
3586220000.0,76.98,-2.0199999809265137,12031147008.0,1802.1693105852657,11.0,-0.013829607516527176,49152.0,27.231642723083496,4.718447854656915e-15,0.0,2.5830655097961426,-0.02583066187798977,0.18365506827831268,-0.025830654427409172,-7.450580596923828e-09,0.0,-0.13213086128234863,0.5915547609329224,0.036602421289714915,-0.3415602147579193,0.10585663467645645,-0.47369110584259033,0.6026874780654907,2.2728164196014404,0.9977028369903564,,,,,,,
3635588000.0,74.31,-2.200000047683716,12031147008.0,1836.4506573057567,12.0,-0.012922877445816994,53248.0,29.462032079696655,5.159067617555024e-15,0.0,2.4787259101867676,-0.024787265807390213,0.13218873739242554,-0.024787258356809616,-7.450580596923828e-09,0.0,-0.07749831676483154,0.5083646178245544,0.03209731294468576,-0.3843056857585907,0.11189815402030945,-0.46180397272109985,0.5167249441146851,2.230389356613159,0.9978621006011963,,,,,,,
3684692000.0,69.77,-2.3399999141693115,12031147008.0,1823.719035578609,13.0,-0.017062373459339142,57344.0,31.70799207687378,4.9057979900624105e-15,0.0,2.501556634902954,-0.02501555159687996,0.18885400891304016,-0.025015566498041153,1.4901161193847656e-08,0.0,-0.1096792221069336,0.6047873497009277,0.07078636065396338,-0.4175587296485901,0.13045069575309753,-0.5272380113601685,0.6274006366729736,2.245959997177124,0.9974346160888672,,,,,,,
3733796000.0,73.13,-2.2699999809265137,12031147008.0,1844.6850529551048,14.0,-0.01022019237279892,61440.0,33.928425312042236,5.054984208996416e-15,0.0,2.5452160835266113,-0.025452161207795143,0.13686810433864594,-0.025452159345149994,-2.3283064365386963e-09,0.0,-0.01766739785671234,0.5229635238647461,0.06430996609438111,-0.466488778591156,0.14706571400165558,-0.48415616154670715,0.5406364798545837,2.220433235168457,0.9976458549499512,,,,,,,
3783164000.0,73.43,-1.809999942779541,12031147008.0,1779.636922712929,15.0,-0.010935012251138687,65536.0,36.23001837730408,4.817327092787593e-15,0.0,2.608001947402954,-0.026080012321472168,0.1495690792798996,-0.026080019772052765,7.450580596923828e-09,0.0,-0.016568318009376526,0.5467510223388672,0.12128748212275808,-0.5873398184776306,0.1734502911567688,-0.6039081811904907,0.5832654237747192,2.301593065261841,0.9974706172943115,,,,,,,
3832268000.0,73.99,-1.8200000524520874,12031147008.0,1771.9798533226835,16.0,-0.01196606457233429,69632.0,38.54155707359314,4.6265075104301445e-15,0.0,2.6260828971862793,-0.026260823011398315,0.17620201408863068,-0.026260828599333763,5.587935447692871e-09,0.0,-0.007576480507850647,0.5936604142189026,0.1082700327297832,-0.7124868631362915,0.20421914756298065,-0.720063328742981,0.6286680102348328,2.3115386962890625,0.9975824356079102,,,,,,,
3881372000.0,76.09,-1.7300000190734863,12031147008.0,1819.287579773138,17.0,-0.011771412566304207,73728.0,40.79298782348633,4.980391099529413e-15,0.0,2.649736166000366,-0.026497356593608856,0.19873914122581482,-0.026497360318899155,3.725290298461914e-09,0.0,0.012009929865598679,0.6304214000701904,0.11670375899574492,-0.7936978340148926,0.251760870218277,-0.78168785572052,0.6707763075828552,2.2514307498931885,0.9981975555419922,,,,,,,
3930740000.0,81.03,-2.059999942779541,12031147008.0,1796.941847778621,18.0,-0.010739870369434357,77824.0,43.07241606712341,5.02028973947688e-15,0.0,2.6608080863952637,-0.026608075946569443,0.19022460281848907,-0.02660807967185974,3.725290298461914e-09,0.0,0.08263526856899261,0.6113197803497314,0.08376147382777832,-0.9066352844238281,0.26325881481170654,-0.8240000605583191,0.6386519074440002,2.279428243637085,0.9977438449859619,,,,,,,
3979844000.0,76.21,-2.069999933242798,12031147008.0,1792.6160335386614,19.0,-0.011304633691906929,81920.0,45.35734486579895,4.53109771925142e-15,0.0,2.6660823822021484,-0.026660818606615067,0.19489812850952148,-0.026660822331905365,3.725290298461914e-09,0.0,0.07185906171798706,0.6202632188796997,0.12417660492476623,-0.9199463129043579,0.2667553126811981,-0.8480871915817261,0.6627775430679321,2.284928798675537,0.9977467060089111,,,,,,,
4029212000.0,73.25,-1.6100000143051147,12031147008.0,1778.188190877432,20.0,-0.00851401686668396,86016.0,47.660813093185425,3.913536161803677e-15,0.0,2.673478126525879,-0.026734787970781326,0.15736711025238037,-0.02673478052020073,-7.450580596923828e-09,0.0,0.07885327935218811,0.5555103421211243,0.12552129211751584,-0.7582871913909912,0.23428194224834442,-0.6794338226318359,0.5940424799919128,2.3034682273864746,0.9977049827575684,,,,,,,
4078316000.0,76.45,-1.399999976158142,12031147008.0,1828.7631488858724,21.0,-0.009425630792975426,90112.0,49.90057826042175,4.1147640850169864e-15,0.0,2.6752967834472656,-0.026752959936857224,0.1836380660533905,-0.02675296738743782,7.450580596923828e-09,0.0,-0.012111254036426544,0.6059859991073608,0.0757966997326972,-0.568526029586792,0.21338385343551636,-0.5806372761726379,0.6303457617759705,2.239765167236328,0.9974014759063721,,,,,,,
4127420000.0,75.88,-1.5,12031147008.0,1773.311762761697,22.0,-0.009701964445412159,94208.0,52.2103807926178,4.0314973581701e-15,0.0,2.667252540588379,-0.026672540232539177,0.16107363998889923,-0.026672525331377983,-1.4901161193847656e-08,0.0,-0.041462723165750504,0.5661328434944153,0.07990070993656828,-0.5336655378341675,0.16428688168525696,-0.5751282572746277,0.5902024507522583,2.309802532196045,0.9977023601531982,,,,,,,
4176788000.0,78.05,-1.6100000143051147,12031147008.0,1828.6298108737458,23.0,-0.010537784546613693,98304.0,54.45030927658081,4.128641872824801e-15,0.0,2.665299415588379,-0.026653001084923744,0.13060955703258514,-0.026652993634343147,-7.450580596923828e-09,0.0,-0.01367756724357605,0.5109753608703613,0.10644974876972291,-0.47295844554901123,0.1433885246515274,-0.4866360127925873,0.5405556559562683,2.2399284839630127,0.9973809719085693,,,,,,,
4225892000.0,77.08,-1.8799999952316284,12031147008.0,1830.8006727764155,24.0,-0.01108781062066555,102400.0,56.68758177757263,4.100886297209172e-15,0.0,2.6671640872955322,-0.026671648025512695,0.1693301796913147,-0.0266716405749321,-7.450580596923828e-09,0.0,-0.06186302751302719,0.5787185430526733,0.1453139346832214,-0.4286919832229614,0.14649003744125366,-0.4905550181865692,0.6259851455688477,2.2372725009918213,0.9974193572998047,,,,,,,
4275260000.0,76.33,-1.4500000476837158,12031147008.0,1809.7194243573656,25.0,-0.006645584478974342,106496.0,58.950916051864624,4.246603069191224e-15,0.0,2.6668448448181152,-0.026668444275856018,0.12898342311382294,-0.026668448001146317,3.725290298461914e-09,0.0,-0.0017945058643817902,0.507963240146637,2.1072768751073667e-06,-0.39480268955230713,0.13021019101142883,-0.3965971767902374,0.5079637169837952,2.263334274291992,0.9977462291717529,,,,,,,
4324364000.0,75.51,-1.6699999570846558,12031147008.0,1830.8045748296981,26.0,-0.012245255522429943,110592.0,61.18818378448486,3.83026943495679e-15,0.0,2.66597843170166,-0.02665979042649269,0.1898532509803772,-0.026659782975912094,-7.450580596923828e-09,0.0,-0.09824374318122864,0.6083954572677612,-0.012333311023516647,-0.3650524914264679,0.12480191886425018,-0.46329623460769653,0.6046780943870544,2.2372677326202393,0.9977066516876221,,,,,,,
4373468000.0,76.06,-2.0899999141693115,12031147008.0,1804.1021251392729,27.0,-0.0131776612251997,114688.0,63.45856523513794,4.315992008230296e-15,0.0,2.6577274799346924,-0.026577269658446312,0.17863771319389343,-0.02657727338373661,3.725290298461914e-09,0.0,-0.09983193874359131,0.5894012451171875,0.047011215695536124,-0.3960856795310974,0.10800624638795853,-0.4959176480770111,0.6037639379501343,2.270381450653076,0.9975004196166992,,,,,,,
4422836000.0,76.05,-1.7200000286102295,12031147008.0,1806.7863099242647,28.0,-0.011294076219201088,118784.0,65.72557377815247,4.8433479449272454e-15,0.0,2.648437976837158,-0.02648438699543476,0.15296125411987305,-0.026484379544854164,-7.450580596923828e-09,0.0,-0.059086985886096954,0.5500046014785767,0.0914871134513292,-0.4156973659992218,0.12450426816940308,-0.47478434443473816,0.5770332217216492,2.2670085430145264,0.9974534511566162,,,,,,,
4471940000.0,73.6,-1.9500000476837158,12031147008.0,1820.510804888077,29.0,-0.01265269611030817,122880.0,67.97549176216125,5.1209037010835345e-15,0.0,2.63185977935791,-0.026318605989217758,0.17157314717769623,-0.026318596675992012,-1.0244548320770264e-08,0.0,-0.043339166790246964,0.5842527747154236,0.06189884631986997,-0.5064671039581299,0.12382198125123978,-0.5498062968254089,0.6032203435897827,2.249917984008789,0.9977729320526123,,,,,,,
4521044000.0,75.42,-2.0799999237060547,12031147008.0,1781.248862371557,30.0,-0.012987609952688217,126976.0,70.27500200271606,5.485195631038664e-15,0.0,2.616107702255249,-0.026161078363656998,0.1883155256509781,-0.02616107650101185,-9.313225746154785e-10,0.0,-0.06514817476272583,0.6103095412254333,0.08635152284574654,-0.5312011241912842,0.1460314393043518,-0.59634929895401,0.6384994983673096,2.2995102405548096,0.9976263046264648,,,,,,,
4570412000.0,76.55,-1.75,12031147008.0,1810.3516001448713,31.0,-0.010207269340753555,131072.0,72.53754591941833,5.910202882652982e-15,0.0,2.593982696533203,-0.025939825922250748,0.1284548044204712,-0.025939825922250748,0.0,0.0,0.010721206665039062,0.5068109631538391,0.16606031479480654,-0.6448081135749817,0.16175240278244019,-0.6340869069099426,0.5549817085266113,2.2625439167022705,0.9976675510406494,,,,,,,
,,,,,,,,,,,,,,,,,,,,,,,,,,0.004833669867366552,0.19197827577590942,0.1859981119632721,0.004833669867366552,0.19197827577590942,0.1859981119632721,
,,,,,,,,,,,,,,,,,,,,,,,,,,0.0014894137857481837,0.1630832552909851,0.1577645093202591,0.0014894137857481837,0.1630832552909851,0.1577645093202591,
,,,,,,,,,,,,,,,,,,,,,,,,,,0.0007860739715397358,0.14212298393249512,0.13530519604682922,0.0007860739715397358,0.14212298393249512,0.13530519604682922,
,,,,,,,,,,,,,,,,,,,,,,,,,,0.0013403651537373662,0.13249176740646362,0.1257028728723526,0.0013403651537373662,0.13249176740646362,0.1257028728723526,
,,,,,,,,,,,,,,,,,,,,,,,,,,0.0010193580528721213,0.12079071253538132,0.11584681272506714,0.0010193580528721213,0.12079071253538132,0.11584681272506714,
,,,,,,,,,,,,,,,,,,,,,,,,,,0.0007991246529854834,0.10870541632175446,0.10273484885692596,0.0007991246529854834,0.10870541632175446,0.10273484885692596,
,,,,,,,,,,,,,,,,,,,,,,,,,,,,,,,,-1.78
4586844000.0,74.03,-2.190000057220459,11990518784.0,16.979538795270667,32.0,-0.01463233307003975,135168.0,313.76906871795654,4.652528362569797e-15,0.0,2.5787837505340576,-0.0257878415286541,0.10538158565759659,-0.0257878378033638,-3.725290298461914e-09,0.0,-0.03761926665902138,0.4576014280319214,0.6899563619304998,-0.5810467004776001,0.520376980304718,-0.6186659932136536,0.8218185901641846,241.2315227985382,0.9978079795837402,,,,,,,
4586844000.0,74.52,-2.009999990463257,12041169408.0,1833.8197779075765,33.0,-0.010260837152600288,139264.0,316.0026578903198,5.545910952697852e-15,0.0,2.583712339401245,-0.025837119668722153,0.09858322143554688,-0.02583712339401245,3.725290298461914e-09,0.0,0.014279119670391083,0.443858802318573,0.6725145730714992,-0.622067928314209,0.5519853830337524,-0.6077888011932373,0.7756197452545166,2.2335891723632812,0.9977996349334717,,,,,,,
4586844000.0,72.61,-1.3899999856948853,12041169408.0,1829.9819997850448,34.0,-0.008707180619239807,143360.0,318.2409312725067,4.6993658964211704e-15,0.0,2.5719332695007324,-0.02571934647858143,0.08180288970470428,-0.025719331577420235,-1.4901161193847656e-08,0.0,0.08124372363090515,0.3962872326374054,0.7294336443937135,-0.6562627553939819,0.5679866671562195,-0.5750190019607544,0.7618564367294312,2.2382733821868896,0.997661828994751,,,,,,,
4586844000.0,70.24,-1.2999999523162842,12041169408.0,1773.8420103916133,35.0,-0.007354477420449257,147456.0,320.5500433444977,4.560588018343026e-15,0.0,2.571168899536133,-0.025711698457598686,0.10047213733196259,-0.02571168914437294,-9.313225746154785e-09,0.0,0.134240061044693,0.4277482330799103,0.7212094692464086,-0.7233878970146179,0.6602842211723328,-0.5891478061676025,0.8101197481155396,2.309112071990967,0.9977610111236572,,,,,,,
4586844000.0,70.28,-1.5499999523162842,12041169408.0,1797.814182873628,36.0,-0.012550482526421547,151552.0,322.8283655643463,4.990799440385274e-15,0.0,2.5696730613708496,-0.025696726515889168,0.10309858620166779,-0.025696730241179466,3.725290298461914e-09,0.0,0.08489551395177841,0.44613730907440186,0.7522373083150359,-0.7398123145103455,0.7168835401535034,-0.6549168229103088,0.8962941765785217,2.278322219848633,0.9981019496917725,,,,,,,
4586844000.0,72.96,-1.600000023841858,12041169408.0,1814.034800379155,37.0,-0.012135015800595284,155648.0,325.08631563186646,4.786102070220011e-15,0.0,2.564990520477295,-0.02564990147948265,0.09475425630807877,-0.02564990520477295,4.6566128730773926e-09,0.0,0.04580722004175186,0.4329618513584137,0.7792712170249211,-0.6379293203353882,0.7829623818397522,-0.5921220779418945,0.9215527176856995,2.2579500675201416,0.9980001449584961,,,,,,,
4586844000.0,72.23,-1.6799999475479126,12041169408.0,1828.32933634226,38.0,-0.0069628492929041386,159744.0,327.3266122341156,5.422745585903499e-15,0.0,2.535522937774658,-0.025355219841003418,0.08813989162445068,-0.025355229154229164,1.0244548320770264e-08,0.0,0.08553330600261688,0.4111023247241974,0.7102829841657701,-0.4633309543132782,0.6934992074966431,-0.3777976632118225,0.763770580291748,2.2402966022491455,0.9984581470489502,,,,,,,
4586844000.0,69.51,-0.8199999928474426,12041169408.0,1843.9974029277707,39.0,-0.0066536711528897285,163840.0,329.5478734970093,4.831204880595408e-15,0.0,2.511725664138794,-0.02511724829673767,0.10068947821855545,-0.025117255747318268,8.381903171539307e-09,0.0,0.06925927102565765,0.44342997670173645,0.7038869769593918,-0.4115084409713745,0.7557103633880615,-0.34224915504455566,0.8148849606513977,2.2212612628936768,0.9974431991577148,,,,,,,
4586844000.0,75.1,-0.8999999761581421,12041169408.0,1808.6917230983483,40.0,-0.005632415413856506,167936.0,331.81249380111694,5.3828469459560324e-15,0.0,2.4476566314697266,-0.024476565420627594,0.07168902456760406,-0.024476565420627594,0.0,0.0,0.0348866768181324,0.37708842754364014,0.697764752779196,-0.18080353736877441,0.659101128578186,-0.1459168642759323,0.6859155297279358,2.264620304107666,0.9977424144744873,,,,,,,
4586844000.0,73.38,-0.800000011920929,12041169408.0,1790.0826772338614,41.0,-0.005767831113189459,172032.0,334.10065627098083,4.551914400963142e-15,0.0,2.467519760131836,-0.02467520162463188,0.07691031694412231,-0.024675197899341583,-2.7939677238464355e-09,0.0,-0.028401074931025505,0.39121782779693604,0.6115222368460846,0.004494471475481987,0.5389094948768616,-0.02390659973025322,0.6276759505271912,2.2881624698638916,0.9979403018951416,,,,,,,
4586844000.0,75.25,-1.1799999475479126,12041169408.0,1838.3479721733206,42.0,-0.00958443246781826,176128.0,336.32874369621277,5.1573328940790475e-15,0.0,2.3696253299713135,-0.02369624935090542,0.07596960663795471,-0.023696253076195717,3.725290298461914e-09,0.0,-0.10540846735239029,0.3753167390823364,0.671123679997138,-0.009948235005140305,0.5561761856079102,-0.1153566986322403,0.6544578075408936,2.2280874252319336,0.9976944923400879,,,,,,,
4586844000.0,74.66,-1.409999966621399,12041169408.0,1833.052969125626,43.0,-0.008443886414170265,180224.0,338.56326723098755,5.702036065535765e-15,0.0,2.3606741428375244,-0.023606741800904274,0.06497965008020401,-0.023606741800904274,0.0,0.0,-0.040219731628894806,0.3582918047904968,0.621706236701179,0.009030746296048164,0.5122155547142029,-0.031188983470201492,0.5825353264808655,2.2345235347747803,0.9976940155029297,,,,,,,
4586844000.0,73.42,-1.2999999523162842,12041169408.0,1784.077535478542,44.0,-0.009682588279247284,184320.0,340.85913157463074,5.455705331947058e-15,0.0,2.3540163040161133,-0.02354016900062561,0.05772623047232628,-0.023540163412690163,-5.587935447692871e-09,0.0,-0.0491754375398159,0.33624669909477234,0.7077940552648334,-0.033573396503925323,0.5309173464775085,-0.08274883031845093,0.6220330595970154,2.2958643436431885,0.9978475570678711,,,,,,,
4586844000.0,71.05,-1.2999999523162842,12041169408.0,1833.8180161930138,45.0,-0.00876142829656601,188416.0,343.09272289276123,5.1573328940790475e-15,0.0,2.405259847640991,-0.02405259571969509,0.07138882577419281,-0.02405259758234024,1.862645149230957e-09,0.0,-0.07112661004066467,0.3711499869823456,0.735484523527638,-0.11030003428459167,0.6229119896888733,-0.18142664432525635,0.7216454744338989,2.233591318130493,0.9979045391082764,,,,,,,
4586844000.0,69.6,-1.350000023841858,12041169408.0,1807.0782240472192,46.0,-0.010130450129508972,192512.0,345.35936522483826,4.983860546481367e-15,0.0,2.4168553352355957,-0.024168558418750763,0.06768202036619186,-0.024168552830815315,-5.587935447692871e-09,0.0,-0.006616041995584965,0.3679039478302002,0.7165568675737155,-0.22901727259159088,0.6070730090141296,-0.23563334345817566,0.6910372972488403,2.2666423320770264,0.997779130935669,,,,,,,
4586844000.0,70.56,-1.2000000476837158,12041169408.0,1812.223634740697,47.0,-0.008934153243899345,196608.0,347.6195719242096,4.747938153748521e-15,0.0,2.4657535552978516,-0.024657538160681725,0.06594135612249374,-0.024657534435391426,-3.725290298461914e-09,0.0,-0.012114809826016426,0.3629987835884094,0.7569185014131327,-0.1796301007270813,0.56966632604599,-0.19174490869045258,0.7362565398216248,2.260206699371338,0.997880220413208,,,,,,,
4586844000.0,71.76,-0.9200000166893005,12041169408.0,1829.1932721375863,48.0,-0.003876246977597475,200704.0,349.8588104248047,5.254477408733749e-15,0.0,2.446645736694336,-0.024466460570693016,0.06754431128501892,-0.024466456845402718,-3.725290298461914e-09,0.0,0.02581202983856201,0.3666813373565674,0.6673751605110936,-0.17587870359420776,0.5111587047576904,-0.15006667375564575,0.6357866525650024,2.2392385005950928,0.9976212978363037,,,,,,,
4586844000.0,68.64,-1.0099999904632568,12041169408.0,1742.097371816199,49.0,-0.009467791765928268,204800.0,352.20999932289124,5.320396900820867e-15,0.0,2.4434237480163574,-0.024434242397546768,0.07858114689588547,-0.02443423680961132,-5.587935447692871e-09,0.0,-0.001291588880121708,0.39648330211639404,0.6831688203391462,-0.25940150022506714,0.5681279301643372,-0.2606930732727051,0.7043863534927368,2.351188898086548,0.9978477954864502,,,,,,,
4586844000.0,68.07,-1.1100000143051147,12041169408.0,1863.243317895482,50.0,-0.0066987876780331135,208896.0,354.40831661224365,5.370703881624195e-15,0.0,2.389230966567993,-0.02389231137931347,0.05732187628746033,-0.02389230951666832,-1.862645149230957e-09,0.0,0.013843250460922718,0.33834901452064514,0.7267385003294733,-0.24328039586544037,0.5612229108810425,-0.22943714261054993,0.6472554802894592,2.198317289352417,0.9976835250854492,,,,,,,
4586844000.0,73.35,-1.090000033378601,12041169408.0,1824.809050442015,51.0,-0.0058722421526908875,212992.0,356.6529350280762,5.7957111332385125e-15,0.0,2.3528904914855957,-0.023528899997472763,0.05193520337343216,-0.02352890372276306,4.6566128730773926e-09,0.0,0.014822755008935928,0.3219875693321228,0.7125683071172024,-0.18042050302028656,0.5567331910133362,-0.16559773683547974,0.6005812883377075,2.2446184158325195,0.9977376461029053,,,,,,,
4586844000.0,75.41,-0.7900000214576721,12041169408.0,1772.3271786275934,52.0,-0.0047926646657288074,217088.0,358.96402072906494,6.0750016128707784e-15,0.0,2.302401542663574,-0.02302401140332222,0.042292457073926926,-0.02302401512861252,4.6566128730773926e-09,0.0,-0.04119459167122841,0.2879377603530884,0.7961663846815499,-0.12505266070365906,0.4850502610206604,-0.16624724864959717,0.6377650499343872,2.3110857009887695,0.9977531433105469,,,,,,,
4586844000.0,73.6,-0.6200000047683716,12041169408.0,1817.1637162740626,53.0,-0.0021009580232203007,221184.0,361.2180829048157,6.879913305724017e-15,0.0,2.2499709129333496,-0.02249971218407154,0.04512491077184677,-0.022499708458781242,-3.725290298461914e-09,0.0,0.0038866898976266384,0.3004276156425476,0.6111210639945244,-0.058684732764959335,0.4435409903526306,-0.05479803681373596,0.4817621111869812,2.2540621757507324,0.9977881908416748,,,,,,,
4586844000.0,71.6,-0.699999988079071,12041169408.0,1830.4948035607338,54.0,-0.007941259071230888,225280.0,363.4557292461395,7.86697096355482e-15,0.0,2.135833501815796,-0.02135832980275154,0.06156037002801895,-0.02135833539068699,5.587935447692871e-09,0.0,-0.06560123711824417,0.3447408080101013,0.7202545462535321,-0.16241973638534546,0.5067582130432129,-0.22802096605300903,0.6517952680587769,2.2376463413238525,0.9984390735626221,,,,,,,
4586844000.0,72.08,-0.8100000023841858,12041169408.0,1843.0253119676654,55.0,-0.0027439314872026443,229376.0,365.6781620979309,8.291978215169138e-15,0.0,2.11596417427063,-0.021159647032618523,0.03493206575512886,-0.021159641444683075,-5.587935447692871e-09,0.0,0.00010693795047700405,0.2643505036830902,0.7377785361385814,-0.09652724862098694,0.4478498101234436,-0.0964203029870987,0.5162332653999329,2.222432851791382,0.9979040622711182,,,,,,,
4586844000.0,69.25,-0.7799999713897705,12041169408.0,1832.7054847596257,56.0,-0.006884075701236725,233472.0,367.91310930252075,7.740336149808513e-15,0.0,2.1330339908599854,-0.021330345422029495,0.04995175451040268,-0.021330339834094048,-5.122274160385132e-09,0.0,-0.028402751311659813,0.314834862947464,0.7640071146740302,-0.15233111381530762,0.5130773186683655,-0.18073385953903198,0.6480870842933655,2.2349472045898438,0.9976537227630615,,,,,,,
4586844000.0,72.12,-0.7900000214576721,12041169408.0,1771.0936941471093,57.0,-0.004901167005300522,237568.0,370.22580456733704,9.5513874587283e-15,0.0,2.1046242713928223,-0.021046236157417297,0.03172379359602928,-0.021046241745352745,6.51925802230835e-09,0.0,-0.005866671446710825,0.2518504559993744,0.8219919616437552,-0.15077568590641022,0.5148487091064453,-0.156642347574234,0.5969293713569641,2.312695264816284,0.9976727962493896,,,,,,,
4586844000.0,72.37,-1.0499999523162842,12041169408.0,1859.5391277937406,58.0,-0.009842644445598125,241664.0,372.4285008907318,9.880984919163893e-15,0.0,2.0225613117218018,-0.020225614309310913,0.04230017215013504,-0.020225612446665764,-9.313225746154785e-10,0.0,-0.03388027846813202,0.2889167070388794,0.8188809842025573,-0.2673574984073639,0.5758539438247681,-0.3012377917766571,0.6788762211799622,2.2026963233947754,0.9980854988098145,,,,,,,
4586844000.0,71.01,-1.1200000047683716,12041169408.0,1786.6201085312384,59.0,-0.008104944601655006,245760.0,374.721097946167,1.0004150285958247e-14,0.0,2.003817319869995,-0.0200381837785244,0.04666858911514282,-0.020038172602653503,-1.1175870895385742e-08,0.0,0.0090421037748456,0.3054147958755493,0.8267605481891146,-0.3325667679309845,0.6472927927970886,-0.3235246241092682,0.7337813377380371,2.2925970554351807,0.9976668357849121,,,,,,,
4586844000.0,70.52,-1.0499999523162842,12041169408.0,1805.0718896893047,60.0,-0.005465534515678883,249856.0,376.9902596473694,1.0890593982182395e-14,0.0,1.9911587238311768,-0.019911590963602066,0.038272131234407425,-0.019911587238311768,-3.725290298461914e-09,0.0,0.03984307125210762,0.2738158106803894,0.8235150379418514,-0.3429015278816223,0.6025797128677368,-0.3030584454536438,0.6517854332923889,2.2691617012023926,0.9976553916931152,,,,,,,
4586844000.0,72.02,-0.6100000143051147,12041169408.0,1840.6675978644237,61.0,-0.004085594788193703,253952.0,379.21553921699524,1.0587017373886454e-14,0.0,2.069622278213501,-0.02069621905684471,0.03426258638501167,-0.02069622278213501,3.725290298461914e-09,0.0,0.05062710493803024,0.25686216354370117,0.8086382946805273,-0.30992817878723145,0.5459215044975281,-0.2593010663986206,0.5871818661689758,2.2252795696258545,0.9977498054504395,,,,,,,
4586844000.0,73.53,-0.6499999761581421,12041169408.0,1825.623876536729,62.0,-0.0060184490866959095,258048.0,381.4591557979584,8.409939411535561e-15,0.0,2.2204723358154297,-0.022204730659723282,0.037843361496925354,-0.022204723209142685,-7.450580596923828e-09,0.0,0.04042692482471466,0.2721588909626007,0.8341740160493593,-0.30084389448165894,0.5953283309936523,-0.26041698455810547,0.6683381795883179,2.2436165809631348,0.9975543022155762,,,,,,,
4586844000.0,73.24,-0.8799999952316284,12041169408.0,1812.5568930385996,63.0,-0.007578223943710327,262144.0,383.71894693374634,7.681355551625302e-15,0.0,2.2940866947174072,-0.022940870374441147,0.04951953515410423,-0.02294086664915085,-3.725290298461914e-09,0.0,-0.0019467654637992382,0.31473714113235474,0.7999920883379391,-0.25994065403938293,0.6185166835784912,-0.26188740134239197,0.7037597298622131,2.259791135787964,0.9978001117706299,,,,,,,
,,,,,,,,,,,,,,,,,,,,,,,,,,0.017437655478715897,0.1433836668729782,0.07663975656032562,0.017437655478715897,0.1433836668729782,0.07663975656032562,
,,,,,,,,,,,,,,,,,,,,,,,,,,0.007773187477141619,0.08222175389528275,0.0635889396071434,0.007773187477141619,0.08222175389528275,0.0635889396071434,
,,,,,,,,,,,,,,,,,,,,,,,,,,0.005468175746500492,0.06890881806612015,0.060129374265670776,0.005468175746500492,0.06890881806612015,0.060129374265670776,
,,,,,,,,,,,,,,,,,,,,,,,,,,0.005354220047593117,0.06551755964756012,0.059196241199970245,0.005354220047593117,0.06551755964756012,0.059196241199970245,
,,,,,,,,,,,,,,,,,,,,,,,,,,0.003725208807736635,0.05962246283888817,0.05402182415127754,0.003725208807736635,0.05962246283888817,0.05402182415127754,
,,,,,,,,,,,,,,,,,,,,,,,,,,0.0036570776719599962,0.05731230974197388,0.054454028606414795,0.0036570776719599962,0.05731230974197388,0.054454028606414795,
,,,,,,,,,,,,,,,,,,,,,,,,,,,,,,,,-1.02
4601104000.0,71.87,-0.9900000095367432,11990521856.0,16.974535006861466,64.0,-0.0073506589978933334,266240.0,625.0215804576874,5.792241686286559e-15,0.0,2.3276355266571045,-0.023276351392269135,0.021060220897197723,-0.023276355117559433,3.725290298461914e-09,0.0,0.012373010627925396,0.2048843502998352,0.9037191950366127,-0.26870959997177124,0.5990643501281738,-0.2563365697860718,0.6602964401245117,241.30263352394104,0.9979517459869385,,,,,,,
4601104000.0,70.36,-1.0399999618530273,12041169408.0,1785.4881922521902,65.0,-0.008785059675574303,270336.0,627.3156309127808,5.483460907562687e-15,0.0,2.3522186279296875,-0.02352217212319374,0.03825690597295761,-0.023522185161709785,1.30385160446167e-08,0.0,0.0267223808914423,0.2753511369228363,0.8780070786850782,-0.3317813277244568,0.6784211993217468,-0.30505895614624023,0.7883508801460266,2.294050455093384,0.9976952075958252,,,,,,,
4601104000.0,70.88,-1.149999976158142,12041169408.0,1802.540487591964,66.0,-0.006216751411557198,274432.0,629.5879793167114,5.649994361256461e-15,0.0,2.3945040702819824,-0.023945048451423645,0.03669288009405136,-0.023945041000843048,-7.450580596923828e-09,0.0,-0.00576488021761179,0.27086979150772095,0.8733388516138,-0.2684081196784973,0.6405003666877747,-0.2741730213165283,0.7610949873924255,2.272348403930664,0.9978933334350586,,,,,,,
4601104000.0,72.54,-0.6700000166893005,12041169408.0,1821.113092726209,67.0,-0.004420754965394735,278528.0,631.8371531963348,5.419276138951545e-15,0.0,2.381960391998291,-0.023819612339138985,0.027387496083974838,-0.02381960302591324,-9.313225746154785e-09,0.0,0.04673057049512863,0.2293558120727539,0.8695769834102842,-0.2559868395328522,0.5953826904296875,-0.20925626158714294,0.6350861191749573,2.249173879623413,0.9977004528045654,,,,,,,
4601104000.0,72.96,-0.6200000047683716,12041169408.0,1809.4439987036783,68.0,-0.0045693665742874146,282624.0,634.1008319854736,6.161737786669619e-15,0.0,2.422851085662842,-0.02422851324081421,0.020170625299215317,-0.02422850951552391,-3.725290298461914e-09,0.0,0.016106490045785904,0.20022891461849213,0.9170419775181203,-0.2508096694946289,0.6398645043373108,-0.2347031831741333,0.6951804757118225,2.263678789138794,0.9975829124450684,,,,,,,
4601104000.0,73.29,-0.7699999809265137,12041169408.0,1811.9554728063808,69.0,-0.006411152891814709,286720.0,636.3613731861115,6.116634976294222e-15,0.0,2.4149723052978516,-0.024149730801582336,0.03260864317417145,-0.02414972335100174,-7.450580596923828e-09,0.0,0.03540578857064247,0.252941370010376,0.8948882795393589,-0.26298147439956665,0.7135322093963623,-0.22757570445537567,0.7801790237426758,2.2605412006378174,0.9978623390197754,,,,,,,
4601104000.0,73.92,-0.47999998927116394,12041169408.0,1834.8672268002877,70.0,-0.002361899707466364,290816.0,638.5936872959137,5.972652927788147e-15,0.0,2.4822773933410645,-0.0248227808624506,0.03503916412591934,-0.024822773411870003,-7.450580596923828e-09,0.0,0.01776246353983879,0.26415878534317017,0.8155478282147834,-0.13025541603565216,0.5630462169647217,-0.11249293386936188,0.6150680780410767,2.232314109802246,0.9981081485748291,,,,,,,
4601104000.0,73.33,-0.550000011920929,12041169408.0,1790.0211276197883,71.0,-0.006173413246870041,294912.0,640.8819284439087,5.504277589274409e-15,0.0,2.5012779235839844,-0.025012772530317307,0.046055518090724945,-0.025012778118252754,5.587935447692871e-09,0.0,0.012195464223623276,0.30328992009162903,0.8469242440177801,-0.2331668883562088,0.7146078944206238,-0.22097143530845642,0.775183916091919,2.288241147994995,0.9990410804748535,,,,,,,
4601104000.0,70.49,-0.75,12041169408.0,1801.918668239809,72.0,-0.006846356205642223,299008.0,643.155061006546,6.3976601794024646e-15,0.0,2.483764171600342,-0.02483764849603176,0.039982154965400696,-0.024837641045451164,-7.450580596923828e-09,0.0,0.008132938295602798,0.2826971411705017,0.8704850266143918,-0.23297655582427979,0.7752305269241333,-0.22484363615512848,0.7855275273323059,2.273132562637329,0.9992218017578125,,,,,,,
4601104000.0,73.81,-1.059999942779541,12041169408.0,1837.0307352124582,73.0,-0.008314745500683784,303104.0,645.3847460746765,6.13918638148192e-15,0.0,2.511198043823242,-0.025111978873610497,0.06417916715145111,-0.025111980736255646,1.862645149230957e-09,0.0,-0.048189565539360046,0.3550589680671692,0.8054336267033009,-0.18382984399795532,0.7204715609550476,-0.23201942443847656,0.8049457669258118,2.229685068130493,0.9980425834655762,,,,,,,
4601104000.0,73.0,-0.8799999952316284,12041169408.0,1814.843673372977,74.0,-0.0029131751507520676,307200.0,647.6416897773743,6.295311494319833e-15,0.0,2.5077781677246094,-0.025077788159251213,0.035196319222450256,-0.025077780708670616,-7.450580596923828e-09,0.0,0.0029656952247023582,0.2653319239616394,0.8343072092913744,-0.03930262103676796,0.5915064215660095,-0.03633692115545273,0.6518350839614868,2.256943702697754,0.9987616539001465,,,,,,,
4601104000.0,71.12,-0.3700000047683716,12041169408.0,1810.5275055262084,75.0,-0.004116013180464506,311296.0,649.9040138721466,6.5954186556638206e-15,0.0,2.500089406967163,-0.025000888854265213,0.0452117845416069,-0.02500089257955551,2.7939677238464355e-09,0.0,0.004271737765520811,0.3007114827632904,0.7840379979207184,-0.061232730746269226,0.6159950494766235,-0.05696099251508713,0.6470850110054016,2.262324094772339,0.9980733394622803,,,,,,,
4601104000.0,70.6,-0.5600000023841858,12041169408.0,1811.0749005350724,76.0,-0.004389884416013956,315392.0,652.1656541824341,6.7931771319251766e-15,0.0,2.5080783367156982,-0.025080779567360878,0.04105142131447792,-0.025080783292651176,3.725290298461914e-09,0.0,-0.02107781358063221,0.2857944965362549,0.8588105175574664,-0.10911150276660919,0.6711665391921997,-0.13018929958343506,0.7605937123298645,2.2616403102874756,0.9976372718811035,,,,,,,
4601104000.0,72.1,-0.5799999833106995,12041169408.0,1769.429361277484,77.0,-0.0018669555429369211,319488.0,654.4805247783661,6.565928356572215e-15,0.0,2.490528106689453,-0.02490527369081974,0.03580856695771217,-0.024905281141400337,7.450580596923828e-09,0.0,-0.01732647977769375,0.26708489656448364,0.845250070178456,-0.0667615532875061,0.6278408765792847,-0.0840880274772644,0.6789442300796509,2.314870595932007,0.9980244636535645,,,,,,,
4601104000.0,72.93,-0.3499999940395355,12041169408.0,1835.716953797922,78.0,-0.003210019553080201,323584.0,656.7118055820465,6.58501031480796e-15,0.0,2.485428810119629,-0.02485428750514984,0.030589113011956215,-0.02485428750514984,0.0,0.0,0.008892862126231194,0.24721258878707886,0.8257045981045051,-0.04859118163585663,0.5628101229667664,-0.03969832509756088,0.5921443700790405,2.23128080368042,0.9978523254394531,,,,,,,
4601104000.0,72.31,-0.36000001430511475,12041169408.0,1847.1170223128704,79.0,-0.0018781012622639537,327680.0,658.929315328598,6.8747091352960865e-15,0.0,2.486546039581299,-0.02486545592546463,0.03601754084229469,-0.02486545965075493,3.725290298461914e-09,0.0,-0.014740264043211937,0.2680211663246155,0.8290252269147758,-0.035876017063856125,0.5852505564689636,-0.05061627924442291,0.6481910943984985,2.2175097465515137,0.9977231025695801,,,,,,,
4601104000.0,70.98,-0.3400000035762787,12041169408.0,1840.5325183219015,80.0,-0.003633529180660844,331776.0,661.1547582149506,6.833075771872643e-15,0.0,2.465209484100342,-0.02465209737420082,0.02767961099743843,-0.024652093648910522,-3.725290298461914e-09,0.0,0.005039046984165907,0.23526015877723694,0.871438444854107,-0.08805852383375168,0.6125268340110779,-0.08301948010921478,0.6561344265937805,2.225442886352539,0.9978666305541992,,,,,,,
4601104000.0,71.67,-0.1599999964237213,12041169408.0,1792.9456739585912,81.0,-0.0009450505604036152,335872.0,663.4392669200897,6.201636426617085e-15,0.0,2.5043656826019287,-0.025043658912181854,0.021384261548519135,-0.025043657049536705,-1.862645149230957e-09,0.0,-0.008567176759243011,0.20665320754051208,0.8907759077668852,-0.008161326870322227,0.582291305065155,-0.016728505492210388,0.6252920627593994,2.28450870513916,0.9979250431060791,,,,,,,
4601104000.0,73.47,-0.1599999964237213,12041169408.0,1781.9842082634702,82.0,-0.0009478465071879327,339968.0,665.7378282546997,7.211245489635587e-15,0.0,2.5124411582946777,-0.025124404579401016,0.041005514562129974,-0.025124410167336464,4.6566128730773926e-09,0.0,0.00011734687723219395,0.2864105999469757,0.8302902674599456,-0.12657985091209412,0.6137307286262512,-0.12646248936653137,0.6952415108680725,2.2985613346099854,0.9977266788482666,,,,,,,
4601104000.0,72.24,-0.28999999165534973,12041169408.0,1849.5838871809833,83.0,-0.002714789006859064,344064.0,667.9523804187775,7.301451110386381e-15,0.0,2.5552358627319336,-0.02555236406624317,0.04339060187339783,-0.025552358478307724,-5.587935447692871e-09,0.0,-0.01802966371178627,0.29407012462615967,0.8438780935302492,-0.13763204216957092,0.6382617950439453,-0.1556617021560669,0.7442502379417419,2.214552164077759,0.9980857372283936,,,,,,,
4601104000.0,71.98,-0.3100000023841858,12041169408.0,1770.1575322373592,84.0,-0.001360597787424922,348160.0,670.2662987709045,6.860831347488272e-15,0.0,2.581890106201172,-0.025818901136517525,0.06356483697891235,-0.025818901136517525,0.0,0.0,0.01194855198264122,0.3563957214355469,0.5991622417762359,-0.03838742896914482,0.5155552625656128,-0.026438875123858452,0.562921941280365,2.313918352127075,0.9979918003082275,,,,,,,
4601104000.0,75.22,-0.46000000834465027,12041169408.0,1808.291742201314,85.0,-0.0044974409975111485,352256.0,672.5314199924469,6.833075771872643e-15,0.0,2.5744564533233643,-0.025744572281837463,0.06200660765171051,-0.025744564831256866,-7.450580596923828e-09,0.0,-0.03666231408715248,0.35028424859046936,0.814021457266396,-0.13893701136112213,0.7200716733932495,-0.1755993366241455,0.8122490644454956,2.2651212215423584,0.9977664947509766,,,,,,,
4601104000.0,76.02,-0.27000001072883606,12041169408.0,1810.4973587930403,86.0,0.0013656903756782413,356352.0,674.7937817573547,7.289308046054543e-15,0.0,2.580878973007202,-0.02580879256129265,0.03558475524187088,-0.02580878883600235,-3.725290298461914e-09,0.0,0.025498587638139725,0.26558718085289,0.871063343543654,-0.09592346847057343,0.6439353823661804,-0.0704248771071434,0.7396374940872192,2.262361764907837,0.9976992607116699,,,,,,,
4601104000.0,76.12,-0.029999999329447746,12041169408.0,1799.5076752519617,87.0,-0.001916856155730784,360448.0,677.0699598789215,7.712580574192884e-15,0.0,2.5788564682006836,-0.025788564234972,0.06665965169668198,-0.025788564234972,-9.313225746154785e-10,0.0,-0.04080803692340851,0.36288586258888245,0.7005678964440213,-0.029479436576366425,0.5677725076675415,-0.07028747349977493,0.6631639003753662,2.2761781215667725,0.9981117248535156,,,,,,,
4601104000.0,75.13,-0.2199999988079071,12041169408.0,1772.0551565134765,88.0,-0.0012352257035672665,364544.0,679.381400346756,7.374309496377407e-15,0.0,2.563338041305542,-0.025633377954363823,0.056891679763793945,-0.025633379817008972,1.862645149230957e-09,0.0,-0.0026952382177114487,0.3373483121395111,0.7326916860318429,-0.025122929364442825,0.5404244065284729,-0.027818163856863976,0.6524876952171326,2.3114404678344727,0.997800350189209,,,,,,,
4601104000.0,71.1,-0.20999999344348907,12041169408.0,1827.808993995208,89.0,0.0004126566927880049,368640.0,681.6223347187042,7.976258542541359e-15,0.0,2.5429282188415527,-0.02542928233742714,0.03630344942212105,-0.02542928233742714,0.0,0.0,0.017431318759918213,0.2689250707626343,0.8185683531848954,-0.02619035914540291,0.5308722257614136,-0.008759042248129845,0.6313567161560059,2.240934371948242,0.999208927154541,,,,,,,
4601104000.0,73.56,-0.5,12041169408.0,1850.2707289788314,90.0,-0.005097744055092335,372736.0,683.8360648155212,8.914743943044812e-15,0.0,2.4860897064208984,-0.024860896170139313,0.039609044790267944,-0.024860896170139313,-9.313225746154785e-10,0.0,0.010699051432311535,0.2812879979610443,0.8908903757413493,-0.2613581418991089,0.8090091347694397,-0.25065910816192627,0.8515686392784119,2.2137300968170166,0.9978353977203369,,,,,,,
4601104000.0,75.01,-0.3400000035762787,12041169408.0,1862.2478070184948,91.0,-0.000690678833052516,376832.0,686.03555727005,9.089951014118469e-15,0.0,2.4200451374053955,-0.024200458079576492,0.028176583349704742,-0.024200450628995895,-7.450580596923828e-09,0.0,0.026055388152599335,0.23598280549049377,0.8701396557936155,-0.05898047611117363,0.6292147040367126,-0.032925091683864594,0.6548503041267395,2.1994924545288086,0.9981510639190674,,,,,,,
4601104000.0,76.82,-0.05999999865889549,12041169408.0,1761.3696284865875,92.0,-0.001384694129228592,380928.0,688.3610203266144,9.707512571566213e-15,0.0,2.3631954193115234,-0.023631954565644264,0.040160711854696274,-0.023631954565644264,0.0,0.0,0.027225423604249954,0.2821340560913086,0.8416221204318411,-0.13032576441764832,0.6896239519119263,-0.10310032963752747,0.7089381217956543,2.325463056564331,0.9979205131530762,,,,,,,
4601104000.0,73.3,-0.3700000047683716,12041169408.0,1845.829037540022,93.0,-0.006382864434272051,385024.0,690.5800774097443,9.620776397767372e-15,0.0,2.387035846710205,-0.023870354518294334,0.043654508888721466,-0.023870358243584633,3.725290298461914e-09,0.0,-0.02001250721514225,0.2948385179042816,0.8740326980521306,-0.17968317866325378,0.774355411529541,-0.19969570636749268,0.8307211399078369,2.219057083129883,0.9975807666778564,,,,,,,
4601104000.0,69.5,-0.5899999737739563,12041169408.0,1835.8083649384005,94.0,-0.001946725882589817,389120.0,692.8112471103668,9.823739044456659e-15,0.0,2.4227547645568848,-0.024227546527981758,0.05219806730747223,-0.024227546527981758,0.0,0.0,-0.007654648739844561,0.32305267453193665,0.8370963900802522,-0.09224569797515869,0.7396780252456665,-0.09990033507347107,0.8004016876220703,2.2311697006225586,0.9979844093322754,,,,,,,
4601104000.0,73.68,-0.14000000059604645,12041169408.0,1852.3393114679436,95.0,0.0001393583370372653,393216.0,695.0225050449371,9.894862706971708e-15,0.0,2.4570417404174805,-0.024570416659116745,0.04370541870594025,-0.024570416659116745,0.0,0.0,0.03826584666967392,0.2932022213935852,0.7638379008903011,-0.04303385317325592,0.581911563873291,-0.004768007434904575,0.6033400893211365,2.2112579345703125,0.9977774620056152,,,,,,,
,,,,,,,,,,,,,,,,,,,,,,,,,,0.006959381978958845,0.05399082973599434,0.0384620800614357,0.006959381978958845,0.05399082973599434,0.0384620800614357,
,,,,,,,,,,,,,,,,,,,,,,,,,,0.003468141658231616,0.037548135966062546,0.03284386172890663,0.003468141658231616,0.037548135966062546,0.03284386172890663,
,,,,,,,,,,,,,,,,,,,,,,,,,,0.002924193162471056,0.0339093953371048,0.030271898955106735,0.002924193162471056,0.0339093953371048,0.030271898955106735,
,,,,,,,,,,,,,,,,,,,,,,,,,,0.0028608846478164196,0.03179371356964111,0.0294661708176136,0.0028608846478164196,0.03179371356964111,0.0294661708176136,
,,,,,,,,,,,,,,,,,,,,,,,,,,0.0023003232199698687,0.02997942641377449,0.02763182297348976,0.0023003232199698687,0.02997942641377449,0.02763182297348976,
,,,,,,,,,,,,,,,,,,,,,,,,,,0.002160899806767702,0.028743259608745575,0.026845231652259827,0.002160899806767702,0.028743259608745575,0.026845231652259827,
,,,,,,,,,,,,,,,,,,,,,,,,,,,,,,,,-1.35
4602272000.0,76.9,0.019999999552965164,11990521856.0,16.995904645327833,96.0,-0.0002792270388454199,397312.0,936.0217390060425,9.955578028630896e-15,0.0,2.479675054550171,-0.024796759709715843,0.060434553772211075,-0.024796750396490097,-9.313225746154785e-09,0.0,0.03829032927751541,0.3455895483493805,0.7805060444254833,-0.1581408977508545,0.6677131652832031,-0.11985055357217789,0.7376481890678406,240.99923396110535,0.9981439113616943,,,,,,,
4602272000.0,77.11,-0.09000000357627869,12041169408.0,1818.3858182607971,97.0,0.00013985601253807545,401408.0,938.2742862701416,9.565265246536114e-15,0.0,2.543699026107788,-0.02543697878718376,0.06241556629538536,-0.025436989963054657,1.1175870895385742e-08,0.0,0.027063122019171715,0.35231947898864746,0.7019492997381218,-0.00500091165304184,0.557460606098175,0.022062208503484726,0.6453444957733154,2.252547264099121,0.9980161190032959,,,,,,,
4602272000.0,74.48,0.05999999865889549,12041169408.0,1758.1778081885043,98.0,0.0002802715462166816,405504.0,940.6039710044861,9.202708040056962e-15,0.0,2.519552230834961,-0.025195522233843803,0.08049415051937103,-0.025195522233843803,0.0,0.0,0.026966910809278488,0.4003750681877136,0.5852333787722983,-0.03226141259074211,0.47941651940345764,-0.005294502712786198,0.6216774582862854,2.3296847343444824,0.9976627826690674,,,,,,,
4602272000.0,78.24,0.05000000074505806,12041169408.0,1822.276919891545,99.0,0.0002808890421874821,409600.0,942.8517084121704,9.664144484666792e-15,0.0,2.546081066131592,-0.02546081319451332,0.0626939982175827,-0.025460809469223022,-3.725290298461914e-09,0.0,-0.00047185830771923065,0.3541446030139923,0.7166390991514446,-0.0026581548154354095,0.5517596006393433,-0.003130011260509491,0.6652895212173462,2.247737407684326,0.9976491928100586,,,,,,,
4602272000.0,81.2,0.019999999552965164,12041169408.0,1846.9657050904395,100.0,0.00014080526307225227,413696.0,945.0693998336792,9.641593079479094e-15,0.0,2.5602569580078125,-0.02560257352888584,0.04264398664236069,-0.025602569803595543,-3.725290298461914e-09,0.0,-0.013768399134278297,0.2917519211769104,0.8005420539605186,0.018598442897200584,0.5793793797492981,0.0048300400376319885,0.6532629728317261,2.217691421508789,0.9976379871368408,,,,,,,
4602272000.0,77.29,-0.30000001192092896,12041169408.0,1848.7149110323387,101.0,-0.0029610195197165012,417792.0,947.2849929332733,9.771697340177354e-15,0.0,2.5639474391937256,-0.025639474391937256,0.07207398116588593,-0.025639474391937256,0.0,0.0,-0.04740646854043007,0.3767429292201996,0.6315579150725249,0.10479456186294556,0.4059813916683197,0.057388100773096085,0.6206696629524231,2.215593099594116,0.9982559680938721,,,,,,,
4602272000.0,74.79,-0.3100000023841858,12041169408.0,1747.4748576326072,102.0,-0.0025409474037587643,421888.0,949.6289465427399,1.0763959168436088e-14,0.0,2.48864483833313,-0.024886446073651314,0.10363501310348511,-0.024886447936296463,1.862645149230957e-09,0.0,-0.04936128109693527,0.4526405930519104,0.6551075850316375,0.04660208523273468,0.5487422347068787,-0.0027591967955231667,0.7707467079162598,2.3439536094665527,0.9978721141815186,,,,,,,
4602272000.0,73.51,-0.15000000596046448,12041169408.0,1817.628398385282,103.0,0.002967789303511381,425984.0,951.8824324607849,1.0982534326409166e-14,0.0,2.5124032497406006,-0.02512403205037117,0.04856164753437042,-0.02512403205037117,9.313225746154785e-10,0.0,0.002027131849899888,0.31167757511138916,0.741172321088329,0.08190833032131195,0.5206869840621948,0.0839354544878006,0.6126327514648438,2.253485918045044,0.998894453048706,,,,,,,
4602272000.0,75.81,0.30000001192092896,12041169408.0,1774.0178530750943,104.0,0.0032547786831855774,430080.0,954.1913156509399,1.0392728344577051e-14,0.0,2.4843759536743164,-0.024843763560056686,0.07187307626008987,-0.024843759834766388,-3.4924596548080444e-09,0.0,0.018597327172756195,0.3787285387516022,0.6159092805656214,0.04788178578019142,0.5245020985603333,0.06647911667823792,0.6110983490943909,2.3088831901550293,0.9975965023040771,,,,,,,
4602272000.0,80.76,0.33000001311302185,12041169408.0,1818.1941431266234,105.0,-0.00042553164530545473,434176.0,956.4441003799438,1.1138659439247078e-14,0.0,2.4450886249542236,-0.024450888857245445,0.03476669639348984,-0.024450885131955147,-3.725290298461914e-09,0.0,-0.024582404643297195,0.26257559657096863,0.8495971124031354,0.051363300532102585,0.5492395162582397,0.02678089588880539,0.6770585775375366,2.2527847290039062,0.9979395866394043,,,,,,,
4602272000.0,77.52,0.2800000011920929,12041169408.0,1853.0863651606755,106.0,0.004551313351839781,438272.0,958.6544668674469,1.0842021724855044e-14,0.0,2.469475269317627,-0.02469475194811821,0.03334701433777809,-0.02469475194811821,0.0,0.0,-0.009564001113176346,0.25810620188713074,0.7818776554980555,0.17053115367889404,0.5056437253952026,0.1609671413898468,0.5526477098464966,2.2103664875030518,0.9979298114776611,,,,,,,
4602272000.0,73.84,0.3199999928474426,12041169408.0,1791.0715948269121,107.0,0.0008553918451070786,442368.0,960.9413659572601,1.0925288451701931e-14,0.0,2.4598147869110107,-0.02459815889596939,0.029571546241641045,-0.024598147720098495,-1.1175870895385742e-08,0.0,0.023991454392671585,0.24203677475452423,0.8480273790968189,-0.01620323769748211,0.56789630651474,0.0077882194891572,0.6208671927452087,2.2868990898132324,0.9978005886077881,,,,,,,
4602272000.0,73.71,0.44999998807907104,12041169408.0,1846.6857740262851,108.0,0.005428354721516371,446464.0,963.1593935489655,1.083855227790309e-14,0.0,2.5265350341796875,-0.025265347212553024,0.027829136699438095,-0.025265349075198174,1.3969838619232178e-09,0.0,0.022841114550828934,0.23484042286872864,0.8424887950812815,0.1937713772058487,0.5245392322540283,0.21661248803138733,0.5917211771011353,2.2180275917053223,0.9978206157684326,,,,,,,
4602272000.0,77.96,0.5699999928474426,12041169408.0,1851.7381501598618,109.0,0.002148103667423129,450560.0,965.3713693618774,1.149080830487037e-14,0.0,2.4785571098327637,-0.024785567075014114,0.04679904878139496,-0.024785570800304413,2.7939677238464355e-09,0.0,-0.020459547638893127,0.30529043078422546,0.7616299719146792,0.1255226731300354,0.5463306307792664,0.10506312549114227,0.6252985000610352,2.2119758129119873,0.998162031173706,,,,,,,
4602272000.0,77.74,0.17000000178813934,12041169408.0,1789.4763183713017,110.0,0.0004304777248762548,454656.0,967.6603071689606,1.1378051278931878e-14,0.0,2.5108652114868164,-0.025108641013503075,0.0587894469499588,-0.02510865218937397,1.1175870895385742e-08,0.0,-0.0358976349234581,0.3410552144050598,0.7311589617677472,0.11009673029184341,0.6063035726547241,0.07419909536838531,0.6577742695808411,2.28893780708313,0.9977481365203857,,,,,,,
4602272000.0,74.65,0.009999999776482582,12041169408.0,1842.5669216178076,111.0,-0.0005752510624006391,458752.0,969.8832929134369,1.127396787037327e-14,0.0,2.537247896194458,-0.025372471660375595,0.09914365410804749,-0.025372479110956192,6.984919309616089e-09,0.0,-0.002189082559198141,0.44534361362457275,0.5607486577719822,0.04981612041592598,0.6196760535240173,0.0476270355284214,0.6719526648521423,2.2229857444763184,0.9984545707702637,,,,,,,
4602272000.0,79.94,0.18000000715255737,12041169408.0,1788.4156197120712,112.0,0.0036011855117976665,462848.0,972.1735882759094,1.07032438467769e-14,0.0,2.5353550910949707,-0.025353549048304558,0.07014359533786774,-0.025353550910949707,1.862645149230957e-09,0.0,0.009598338976502419,0.3744720220565796,0.7157559301191144,0.07369927316904068,0.6231380105018616,0.08329761028289795,0.702382504940033,2.290295362472534,0.9978752136230469,,,,,,,
4602272000.0,83.08,0.4099999964237213,12041169408.0,1854.242197822598,113.0,0.003174228360876441,466944.0,974.3825769424438,1.0656406312925526e-14,0.0,2.5470566749572754,-0.025470566004514694,0.06832164525985718,-0.025470566004514694,0.0,0.0,0.003992326557636261,0.36967650055885315,0.713216044731696,0.16647061705589294,0.5945753455162048,0.1704629361629486,0.6903104186058044,2.208988666534424,0.997753381729126,,,,,,,
4602272000.0,84.35,0.44999998807907104,12041169408.0,1833.1828451619876,114.0,0.002602018415927887,471040.0,976.6169421672821,1.0243542125643046e-14,0.0,2.5596649646759033,-0.025596652179956436,0.07151985168457031,-0.025596648454666138,-2.7939677238464355e-09,0.0,-0.021905235946178436,0.37761709094047546,0.5237538965931237,0.1772739589214325,0.4412326216697693,0.15536873042583466,0.5471872091293335,2.234365224838257,0.9979560375213623,,,,,,,
4602272000.0,82.23,-0.20999999344348907,12041169408.0,1760.1636067112947,115.0,-0.005202156491577625,475136.0,978.9439985752106,9.743941764561725e-15,0.0,2.567047357559204,-0.02567048743367195,0.12640753388404846,-0.025670472532510757,-1.4901161193847656e-08,0.0,-0.08570453524589539,0.4955095946788788,0.5916332484441982,0.039666034281253815,0.5294355750083923,-0.046038493514060974,0.7754019498825073,2.327056407928467,0.9978818893432617,,,,,,,
4602272000.0,82.17,-0.33000001311302185,12041169408.0,1763.8721111112366,116.0,-0.0007236861856654286,479232.0,981.2661623954773,1.0538445116559103e-14,0.0,2.5684828758239746,-0.025684816762804985,0.05393905192613602,-0.02568482793867588,1.1175870895385742e-08,0.0,0.024701589718461037,0.32755783200263977,0.7139899118439925,-0.011950461193919182,0.5167268514633179,0.012751130387187004,0.6124876141548157,2.3221638202667236,0.9977824687957764,,,,,,,
4602272000.0,82.69,0.20000000298023224,12041169408.0,1751.499586029207,117.0,0.005076907109469175,483328.0,983.6047298908234,9.924353006063313e-15,0.0,2.542013168334961,-0.025420131161808968,0.03301297128200531,-0.025420131161808968,0.0,0.0,0.06494496762752533,0.2486426830291748,0.7544752396298168,0.0026095747016370296,0.44864341616630554,0.0675545483827591,0.5017969608306885,2.3385674953460693,0.9978065490722656,,,,,,,
4602272000.0,80.88,0.5799999833106995,12041169408.0,1831.3106169495804,118.0,0.0029058484360575676,487424.0,985.841379404068,1.0430892261048541e-14,0.0,2.521026611328125,-0.025210272520780563,0.04570774361491203,-0.025210265070199966,-7.450580596923828e-09,0.0,0.03648502752184868,0.3001771569252014,0.6415941464362727,0.035134799778461456,0.3741372525691986,0.07161983102560043,0.5014066696166992,2.236649513244629,0.998049259185791,,,,,,,
4602272000.0,79.56,0.20000000298023224,12041169408.0,1804.8591194825835,119.0,-0.0008731060661375523,491520.0,988.1108086109161,1.0111703141468809e-14,0.0,2.493081569671631,-0.02493080124258995,0.03545255959033966,-0.024930814281105995,1.30385160446167e-08,0.0,0.028516879305243492,0.26478108763694763,0.8042375249542275,-0.09427253901958466,0.4885043799877167,-0.06575565785169601,0.5984421968460083,2.2694292068481445,0.9980311393737793,,,,,,,
4602272000.0,76.24,0.23000000417232513,12041169408.0,1753.1906357272765,120.0,0.004957789555191994,495616.0,990.4471204280853,1.0529771499179219e-14,0.0,2.461621046066284,-0.02461620792746544,0.015954045578837395,-0.024616209790110588,1.862645149230957e-09,0.0,0.04746547341346741,0.1722276508808136,0.8441525225079424,0.02899600937962532,0.40819236636161804,0.07646147906780243,0.43626758456230164,2.3363118171691895,0.9979779720306396,,,,,,,
4602272000.0,75.96,0.3499999940395355,12041169408.0,1805.5987212311966,121.0,0.0014587165787816048,499712.0,992.7156200408936,1.0436096431476471e-14,0.0,2.4769396781921387,-0.02476939558982849,0.05696331337094307,-0.02476939558982849,0.0,0.0,0.04155191034078598,0.33500367403030396,0.7549254712136032,-0.020903751254081726,0.5061295032501221,0.020648162811994553,0.6767067313194275,2.2684996128082275,0.9977738857269287,,,,,,,
4602272000.0,75.97,0.15000000596046448,12041169408.0,1852.506691827019,122.0,-1.1641532182693481e-10,503808.0,994.9266781806946,1.099641211421698e-14,0.0,2.466902256011963,-0.02466902881860733,0.03933674842119217,-0.024669021368026733,-7.450580596923828e-09,0.0,0.048719294369220734,0.2762581408023834,0.826406531599753,-0.08715152740478516,0.5579633712768555,-0.038432229310274124,0.6630532145500183,2.2110581398010254,0.9979016780853271,,,,,,,
4602272000.0,76.3,0.4300000071525574,12041169408.0,1805.7989485082705,123.0,0.007313674781471491,507904.0,997.1949262619019,9.780370957557238e-15,0.0,2.515565872192383,-0.025155654177069664,0.039604660123586655,-0.025155657902359962,3.725290298461914e-09,0.0,0.12228082120418549,0.25352004170417786,0.7407074851998101,0.01523740403354168,0.45512354373931885,0.13751822710037231,0.497871458530426,2.2682480812072754,0.9978563785552979,,,,,,,
4602272000.0,79.73,0.5899999737739563,12041169408.0,1815.815619113814,124.0,0.0032223090529441833,512000.0,999.4506618976593,1.1136924715771102e-14,0.0,2.503523588180542,-0.025035228580236435,0.04239236190915108,-0.025035236030817032,7.450580596923828e-09,0.0,0.04954789578914642,0.28696662187576294,0.7015198090020629,0.07521144300699234,0.45409756898880005,0.12475933134555817,0.5252591371536255,2.2557356357574463,0.9978165626525879,,,,,,,
4602272000.0,79.49,0.49000000953674316,12041169408.0,1738.9526004270488,125.0,0.0036643727216869593,516096.0,1001.8061027526855,1.1003351008120887e-14,0.0,2.5215349197387695,-0.02521534450352192,0.03975392132997513,-0.025215348228812218,4.190951585769653e-09,0.0,0.0289786197245121,0.2805125415325165,0.8669717070665294,0.03439463675022125,0.6508864760398865,0.06337325274944305,0.7690955400466919,2.355440855026245,0.9979865550994873,,,,,,,
4602272000.0,78.8,0.7699999809265137,12041169408.0,1839.3809080658002,126.0,0.006902786437422037,520192.0,1004.0329389572144,1.0678957718113224e-14,0.0,2.488921880722046,-0.024889204651117325,0.02773461304605007,-0.02488921768963337,1.30385160446167e-08,0.0,0.04468169063329697,0.23127003014087677,0.8101652536052553,0.2183721363544464,0.478776216506958,0.263053834438324,0.5308007001876831,2.2268362045288086,0.9976136684417725,,,,,,,
4602272000.0,79.9,0.5600000023841858,12041169408.0,1848.99147767724,127.0,0.0013233216013759375,524288.0,1006.2482006549835,1.0538445116559103e-14,0.0,2.494036912918091,-0.02494036592543125,0.06494633853435516,-0.0249403677880764,1.862645149230957e-09,0.0,-0.02483345940709114,0.35959360003471375,0.8028018659538239,0.25722914934158325,0.681046187877655,0.23239567875862122,0.8097679615020752,2.215261697769165,0.9977967739105225,,,,,,,
,,,,,,,,,,,,,,,,,,,,,,,,,,0.00789928063750267,0.0684027373790741,0.056751690804958344,0.00789928063750267,0.0684027373790741,0.056751690804958344,
,,,,,,,,,,,,,,,,,,,,,,,,,,0.005561473313719034,0.05165546387434006,0.048933930695056915,0.005561473313719034,0.05165546387434006,0.048933930695056915,
,,,,,,,,,,,,,,,,,,,,,,,,,,0.005580356810241938,0.04955917224287987,0.04896029829978943,0.005580356810241938,0.04955917224287987,0.04896029829978943,
,,,,,,,,,,,,,,,,,,,,,,,,,,0.004288817290216684,0.04579336941242218,0.04406537488102913,0.004288817290216684,0.04579336941242218,0.04406537488102913,
,,,,,,,,,,,,,,,,,,,,,,,,,,0.0037641972303390503,0.04390236362814903,0.04220763221383095,0.0037641972303390503,0.04390236362814903,0.04220763221383095,
,,,,,,,,,,,,,,,,,,,,,,,,,,0.00397593853995204,0.042732637375593185,0.04115487262606621,0.00397593853995204,0.042732637375593185,0.04115487262606621,
,,,,,,,,,,,,,,,,,,,,,,,,,,,,,,,,0.18
4603692000.0,82.34,0.47999998927116394,11990521856.0,16.971704172100253,128.0,0.006915987469255924,528384.0,1247.5910828113556,1.063212018426185e-14,0.0,2.483503580093384,-0.02483503520488739,0.06273967027664185,-0.02483503520488739,0.0,0.0,0.11216575652360916,0.3360442817211151,0.8083838663206074,-0.016040313988924026,0.7652080059051514,0.09612543880939484,0.7676804065704346,241.34288215637207,0.9979772567749023,,,,,,,
4603692000.0,83.89,0.75,12041169408.0,1818.4406724979287,129.0,0.002354817930608988,532480.0,1249.8435621261597,1.1391929066739692e-14,0.0,2.4971609115600586,-0.0249716155230999,0.06803528964519501,-0.024971608072519302,-6.51925802230835e-09,0.0,0.026275094598531723,0.36798539757728577,0.7862626939592963,0.1423477828502655,0.6894555687904358,0.16862288117408752,0.795958399772644,2.252479314804077,0.9978029727935791,,,,,,,
4603692000.0,81.44,0.5699999928474426,12041169408.0,1812.745659928857,130.0,0.004864540882408619,536576.0,1252.10311794281,1.0342421363773724e-14,0.0,2.4904518127441406,-0.024904510006308556,0.05094265565276146,-0.024904517456889153,7.916241884231567e-09,0.0,0.006818728055804968,0.31916090846061707,0.800603448764115,0.21978288888931274,0.6790637969970703,0.22660161554813385,0.7147445678710938,2.2595558166503906,0.9979100227355957,,,,,,,
4603692000.0,83.41,0.6600000262260437,12041169408.0,1819.0356204403984,131.0,0.0063471077010035515,540672.0,1254.3548605442047,1.087671619437458e-14,0.0,2.509775161743164,-0.025097746402025223,0.05979037284851074,-0.02509775012731552,3.725290298461914e-09,0.0,-0.0025730468332767487,0.3458371162414551,0.7181664637446665,0.35855036973953247,0.5945363640785217,0.3559773564338684,0.6514412760734558,2.2517426013946533,0.9978952407836914,,,,,,,
4603692000.0,85.15,1.1799999475479126,12041169408.0,1755.1617712639008,132.0,0.010484963655471802,544768.0,1256.688548564911,1.1190701143526383e-14,0.0,2.496408462524414,-0.02496408298611641,0.0416962206363678,-0.02496408484876156,9.313225746154785e-10,0.0,0.019874511286616325,0.28812792897224426,0.8305004322495699,0.40084177255630493,0.6694111824035645,0.4207162857055664,0.6998437643051147,2.3336880207061768,0.9977214336395264,,,,,,,
4603692000.0,86.0,1.0399999618530273,12041169408.0,1806.4331363345868,133.0,0.005464189685881138,548864.0,1258.956000328064,1.0531506222655196e-14,0.0,2.458256244659424,-0.024582557380199432,0.06274227052927017,-0.02458256110548973,3.725290298461914e-09,0.0,0.03782030567526817,0.35225623846054077,0.820960266596573,0.3211500644683838,0.7738909125328064,0.35897037386894226,0.8324995040893555,2.267451763153076,0.9977407455444336,,,,,,,
4603692000.0,91.54,0.9399999976158142,12041169408.0,1810.7794035449597,134.0,0.006804751232266426,552960.0,1261.218009710312,1.1509890263106115e-14,0.0,2.5023670196533203,-0.025023674592375755,0.052226826548576355,-0.025023669004440308,-5.587935447692871e-09,0.0,0.019114907830953598,0.32266655564308167,0.7891603325545526,0.38800403475761414,0.6909093856811523,0.40711891651153564,0.7027125954627991,2.262009382247925,0.9978454113006592,,,,,,,
4603692000.0,87.16,0.9100000262260437,12041169408.0,1785.5581526836374,135.0,0.007998104207217693,557056.0,1263.511970281601,1.1156006674006846e-14,0.0,2.502815008163452,-0.02502814680337906,0.06425978243350983,-0.025028148666024208,2.7939677238464355e-09,0.0,-0.023863811045885086,0.3577447831630707,0.7224999603587969,0.5812177658081055,0.6334310173988342,0.5573539137840271,0.6791126132011414,2.2939605712890625,0.9977104663848877,,,,,,,
4603692000.0,92.79,1.2400000095367432,12041169408.0,1793.525925938299,136.0,0.011557137593626976,561152.0,1265.795739889145,1.170244456893954e-14,0.0,2.4967451095581055,-0.024967454373836517,0.06354434788227081,-0.02496745064854622,-3.725290298461914e-09,0.0,0.035334110260009766,0.35478290915489197,0.6978301729148673,0.639758825302124,0.5554519891738892,0.6750929355621338,0.6454122066497803,2.2837696075439453,0.9977500438690186,,,,,,,
4603692000.0,92.29,1.5499999523162842,12041169408.0,1774.2582277979016,137.0,0.009199344553053379,565248.0,1268.1043102741241,1.1672954269847935e-14,0.0,2.5070531368255615,-0.025070535019040108,0.03851120173931122,-0.02507053129374981,-3.725290298461914e-09,0.0,-0.021251926198601723,0.27674803137779236,0.742310929756418,0.5407649278640747,0.5237635374069214,0.5195130109786987,0.5451756119728088,2.308570384979248,0.9978950023651123,,,,,,,
4603692000.0,83.61,1.2300000190734863,12041169408.0,1849.7143239824072,138.0,0.007131236605346203,569344.0,1270.3187062740326,1.165387231161219e-14,0.0,2.4863343238830566,-0.024863341823220253,0.07024805247783661,-0.024863341823220253,0.0,0.0,-0.0585300475358963,0.3702752888202667,0.70701328708378,0.5890960693359375,0.5973454117774963,0.5305660367012024,0.6840704083442688,2.2143959999084473,0.9979031085968018,,,,,,,
4603692000.0,81.0,0.8999999761581421,12041169408.0,1833.8448337699867,139.0,0.00699527096003294,573440.0,1272.5522649288177,1.0684161888541155e-14,0.0,2.493316650390625,-0.02493317611515522,0.053652647882699966,-0.024933166801929474,-9.313225746154785e-09,0.0,-0.04586644098162651,0.3243875205516815,0.727351849984003,0.44360917806625366,0.6111598610877991,0.39774274826049805,0.6212449073791504,2.2335586547851562,0.9979543685913086,,,,,,,
4603692000.0,76.44,0.7699999809265137,12041169408.0,1796.227536294162,140.0,0.005064534954726696,577536.0,1274.8325996398926,1.1225395613045919e-14,0.0,2.522610664367676,-0.025226114317774773,0.054784782230854034,-0.025226106867194176,-7.450580596923828e-09,0.0,-0.03276178613305092,0.3294278681278229,0.7708405730531065,0.39149707555770874,0.5343133807182312,0.3587352931499481,0.6881632208824158,2.280334711074829,0.9992682933807373,,,,,,,
4603692000.0,76.06,0.7699999809265137,12041169408.0,1847.5534392770269,141.0,0.008947447873651981,581632.0,1277.0495855808258,1.1617443118616677e-14,0.0,2.5000953674316406,-0.025000952184200287,0.04993496090173721,-0.025000952184200287,0.0,0.0,-0.01768929325044155,0.3155650794506073,0.7642952896057409,0.3574342727661133,0.5374374985694885,0.3397449553012848,0.6499872803688049,2.2169859409332275,0.9979560375213623,,,,,,,
4603692000.0,85.8,1.1799999475479126,12041169408.0,1813.1856948480226,142.0,0.008658720180392265,585728.0,1279.3085930347443,1.1131720545343171e-14,0.0,2.493929147720337,-0.02493930235505104,0.03900023177266121,-0.024939291179180145,-1.1175870895385742e-08,0.0,0.04824713617563248,0.27512025833129883,0.7343540644884006,0.32291293144226074,0.4483756422996521,0.3711600601673126,0.5337907075881958,2.259007453918457,0.9977962970733643,,,,,,,
4603692000.0,87.16,1.0499999523162842,12041169408.0,1785.8664521392982,143.0,0.0035875062458217144,589824.0,1281.6021575927734,1.0927023175177908e-14,0.0,2.5223655700683594,-0.02522365190088749,0.07936251163482666,-0.025223655626177788,3.725290298461914e-09,0.0,-0.0037377728149294853,0.39843422174453735,0.6258029590287552,0.21670973300933838,0.47374972701072693,0.21297195553779602,0.6513380408287048,2.293564558029175,0.9982571601867676,,,,,,,
4603692000.0,88.97,0.7400000095367432,12041169408.0,1824.765246518315,144.0,0.005686172749847174,593920.0,1283.8468298912048,1.0921819004749977e-14,0.0,2.510344982147217,-0.02510344609618187,0.06784143298864365,-0.025103449821472168,3.725290298461914e-09,0.0,0.021595211699604988,0.36776289343833923,0.6694528116833445,0.2244390994310379,0.5096445679664612,0.24603432416915894,0.6396629214286804,2.2446722984313965,0.997638463973999,,,,,,,
4603692000.0,90.92,0.7200000286102295,12041169408.0,1772.4816907334302,145.0,0.0055407374165952206,598016.0,1286.1577141284943,1.1260090082565455e-14,0.0,2.4851279258728027,-0.02485128678381443,0.05234057083725929,-0.024851279333233833,-7.450580596923828e-09,0.0,0.05120024457573891,0.31950679421424866,0.7273802536029821,0.20505790412425995,0.4896881580352783,0.25625815987586975,0.6119296550750732,2.3108842372894287,0.997748613357544,,,,,,,
4603692000.0,98.16,1.0299999713897705,12041169408.0,1846.515871451422,146.0,0.009139582514762878,602112.0,1288.3759458065033,1.1601830607332886e-14,0.0,2.480501651763916,-0.02480502612888813,0.05762041360139847,-0.024805016815662384,-9.313225746154785e-09,0.0,0.05670816823840141,0.3347422480583191,0.7127542751989524,0.29548394680023193,0.48930367827415466,0.35219210386276245,0.624573826789856,2.218231678009033,0.9980318546295166,,,,,,,
4603692000.0,98.49,1.2000000476837158,12041169408.0,1781.8670295977836,147.0,0.006446240469813347,606208.0,1290.6746582984924,1.2117043479697998e-14,0.0,2.4791274070739746,-0.02479126863181591,0.06809177994728088,-0.024791274219751358,5.587935447692871e-09,0.0,0.057848766446113586,0.36451271176338196,0.776277118379392,0.18406718969345093,0.6343234181404114,0.24191595613956451,0.7706505656242371,2.2987124919891357,0.9978101253509521,,,,,,,
4603692000.0,94.63,1.2200000286102295,12041169408.0,1834.5856612263349,148.0,0.007954963482916355,610304.0,1292.9073150157928,1.1931428067768479e-14,0.0,2.4780614376068115,-0.024780603125691414,0.03211352601647377,-0.02478061430156231,1.1175870895385742e-08,0.0,0.01911177672445774,0.2527397871017456,0.7884879410005916,0.3133491277694702,0.46821895241737366,0.332460880279541,0.5495484471321106,2.232656717300415,0.9979074001312256,,,,,,,
4603692000.0,86.49,1.100000023841858,12041169408.0,1780.848926574252,149.0,0.00706140510737896,614400.0,1295.20734167099,1.3253287356462806e-14,0.0,2.4528274536132812,-0.024528270587325096,0.055746156722307205,-0.024528274312615395,3.725290298461914e-09,0.0,0.02006363682448864,0.3333420157432556,0.828663984795217,0.3141380548477173,0.6951232552528381,0.3342016637325287,0.805314838886261,2.3000266551971436,0.998063325881958,,,,,,,
4603692000.0,84.77,0.8500000238418579,12041169408.0,1775.3042126801706,150.0,0.0058608828112483025,618496.0,1297.5145518779755,1.4002687898084787e-14,0.0,2.425579071044922,-0.024255791679024696,0.08415423333644867,-0.024255789816379547,-1.862645149230957e-09,0.0,-0.055533550679683685,0.4065277874469757,0.7367737458471557,0.38569170236587524,0.6640325784683228,0.3301581144332886,0.7923656702041626,2.3072102069854736,0.9978783130645752,,,,,,,
4603692000.0,81.16,0.9599999785423279,12041169408.0,1859.9423699288984,151.0,0.008873267099261284,622592.0,1299.7167706489563,1.3024303857633868e-14,0.0,2.452754259109497,-0.024527549743652344,0.08946812152862549,-0.024527542293071747,-7.450580596923828e-09,0.0,0.016029251739382744,0.4227563440799713,0.6519829594409725,0.5254549980163574,0.6161591410636902,0.5414842367172241,0.7166215181350708,2.202218770980835,0.9975430965423584,,,,,,,
4603692000.0,90.77,1.3300000429153442,12041169408.0,1800.9832504137419,152.0,0.008574269711971283,626688.0,1301.9910838603973,1.260450077644748e-14,0.0,2.473020553588867,-0.024730201810598373,0.07997748255729675,-0.024730205535888672,2.7939677238464355e-09,0.0,-0.03341212868690491,0.3985942602157593,0.6492417595747132,0.4731608033180237,0.5477343201637268,0.4397486746311188,0.6730186343193054,2.27431321144104,0.9977028369903564,,,,,,,
4603692000.0,92.59,1.0299999713897705,12041169408.0,1827.1128795316174,153.0,0.004365559667348862,630784.0,1304.2328720092773,1.2231535229112467e-14,0.0,2.481113910675049,-0.02481113001704216,0.10087249428033829,-0.024811139330267906,8.381903171539307e-09,0.0,-0.05284176394343376,0.44609561562538147,0.6910809932402888,0.4521898329257965,0.7265870571136475,0.39934808015823364,0.8026120662689209,2.241788148880005,0.9978721141815186,,,,,,,
4603692000.0,88.21,0.9300000071525574,12041169408.0,1808.711907689716,154.0,0.00949329324066639,634880.0,1306.4974670410156,1.152897222134186e-14,0.0,2.5115318298339844,-0.025115318596363068,0.07539686560630798,-0.025115318596363068,9.313225746154785e-10,0.0,0.048482105135917664,0.38533031940460205,0.6633778092537281,0.4682140350341797,0.6946242451667786,0.5166960954666138,0.6641433238983154,2.2645950317382812,0.9978890419006348,,,,,,,
4603692000.0,90.44,1.0499999523162842,12041169408.0,1816.0010342194068,155.0,0.009651675820350647,638976.0,1308.7529723644257,1.2030307305899157e-14,0.0,2.5155069828033447,-0.025155071169137955,0.08048681169748306,-0.025155069306492805,-2.3283064365386963e-09,0.0,0.021123552694916725,0.4007076621055603,0.697589933817244,0.36836695671081543,0.7074202299118042,0.3894904851913452,0.728667676448822,2.255505323410034,0.9980752468109131,,,,,,,
4603692000.0,87.37,1.1100000143051147,12041169408.0,1824.734817596823,156.0,0.0037711509503424168,643072.0,1310.997682094574,1.1473461070110602e-14,0.0,2.523683547973633,-0.0252368301153183,0.0744304209947586,-0.025236835703253746,5.587935447692871e-09,0.0,-0.005118324421346188,0.3858380615711212,0.8254637797545171,0.3445006012916565,0.7934098839759827,0.3393822908401489,0.9235539436340332,2.2447097301483154,0.9978833198547363,,,,,,,
4603692000.0,89.95,0.75,12041169408.0,1821.3414911960049,157.0,0.0042264717631042,647168.0,1313.2465739250183,1.1419684642355321e-14,0.0,2.5326216220855713,-0.025326209142804146,0.0750267282128334,-0.025326214730739594,5.587935447692871e-09,0.0,-0.0020012985914945602,0.3874094486236572,0.6085123594655426,0.361217200756073,0.519956111907959,0.3592158854007721,0.6191717982292175,2.248891830444336,0.9979021549224854,,,,,,,
4603692000.0,96.03,1.090000033378601,12041169408.0,1815.511666336427,158.0,0.012235734611749649,651264.0,1315.502687215805,1.1261824806041432e-14,0.0,2.5478179454803467,-0.025478163734078407,0.06393174827098846,-0.0254781786352396,1.4901161193847656e-08,0.0,0.057080380618572235,0.35303789377212524,0.7214800509740361,0.5058916211128235,0.5548683404922485,0.5629719495773315,0.6689492464065552,2.256113290786743,0.9995393753051758,,,,,,,
4603692000.0,90.94,1.4700000286102295,12041169408.0,1843.0334183767065,159.0,0.01193794421851635,655360.0,1317.7251102924347,1.1282641487753153e-14,0.0,2.508136749267578,-0.025081368163228035,0.06947711110115051,-0.025081366300582886,-1.862645149230957e-09,0.0,0.02154008112847805,0.3721882104873657,0.7285085948679564,0.4655567705631256,0.6807717680931091,0.4870968163013458,0.7143064737319946,2.2224230766296387,0.9977450370788574,,,,,,,
,,,,,,,,,,,,,,,,,,,,,,,,,,0.009096954017877579,0.07608454674482346,0.07077039778232574,0.009096954017877579,0.07608454674482346,0.07077039778232574,
,,,,,,,,,,,,,,,,,,,,,,,,,,0.005794818047434092,0.05818980932235718,0.055364176630973816,0.005794818047434092,0.05818980932235718,0.055364176630973816,
,,,,,,,,,,,,,,,,,,,,,,,,,,0.005373572465032339,0.053374163806438446,0.05093083530664444,0.005373572465032339,0.053374163806438446,0.05093083530664444,
,,,,,,,,,,,,,,,,,,,,,,,,,,0.004073594696819782,0.04943784326314926,0.04771985858678818,0.004073594696819782,0.04943784326314926,0.04771985858678818,
,,,,,,,,,,,,,,,,,,,,,,,,,,0.004261422902345657,0.048082105815410614,0.048252612352371216,0.004261422902345657,0.048082105815410614,0.048252612352371216,
,,,,,,,,,,,,,,,,,,,,,,,,,,0.0042091417126357555,0.0471385195851326,0.046947527676820755,0.0042091417126357555,0.0471385195851326,0.046947527676820755,
,,,,,,,,,,,,,,,,,,,,,,,,,,,,,,,,0.41
4603752000.0,82.92,1.5399999618530273,11990521856.0,16.968282590349745,160.0,0.010884551331400871,659456.0,1559.1166582107544,1.0658141036401503e-14,0.0,2.538848400115967,-0.025388481095433235,0.04524683207273483,-0.025388482958078384,1.3969838619232178e-09,0.0,0.03741590678691864,0.29852214455604553,0.7205560338957884,0.3592323660850525,0.4500795304775238,0.3966482877731323,0.564714789390564,241.3915479183197,0.998070240020752,,,,,,,
4603752000.0,77.4,1.3799999952316284,12041169408.0,1799.8274105325486,161.0,0.009533965960144997,663552.0,1561.392431974411,1.0363238045485446e-14,0.0,2.5557570457458496,-0.02555757761001587,0.04085193946957588,-0.025557570159435272,-8.381903171539307e-09,0.0,0.052473001182079315,0.2810155749320984,0.7461990515672612,0.3441222310066223,0.5108575224876404,0.3965952396392822,0.5578067302703857,2.275773763656616,0.9978487491607666,,,,,,,
4603752000.0,77.53,1.2799999713897705,12041169408.0,1866.7014204641146,162.0,0.010902388952672482,667648.0,1563.5866768360138,1.1216721995666035e-14,0.0,2.5203864574432373,-0.025203870609402657,0.04021421819925308,-0.02520386315882206,-7.450580596923828e-09,0.0,0.0246267169713974,0.2825622856616974,0.803630214186974,0.4120035171508789,0.5518930554389954,0.4366302490234375,0.6376419067382812,2.194244861602783,0.9974746704101562,,,,,,,
4603752000.0,80.46,1.3600000143051147,12041169408.0,1835.9148919799509,163.0,0.009395169094204903,671744.0,1565.817717075348,1.0939166239509746e-14,0.0,2.548654079437256,-0.025486547499895096,0.04154552146792412,-0.0254865400493145,-6.51925802230835e-09,0.0,0.025919053703546524,0.28712254762649536,0.7984663131036545,0.39066722989082336,0.5208914875984192,0.4165862798690796,0.639578104019165,2.2310402393341064,0.9978327751159668,,,,,,,
4603752000.0,83.92,1.190000057220459,12041169408.0,1798.9033918696905,164.0,0.008038518950343132,675840.0,1568.0946598052979,1.0937431516033769e-14,0.0,2.5201215744018555,-0.025201210752129555,0.0588202029466629,-0.025201214477419853,3.725290298461914e-09,0.0,0.010866208001971245,0.34285715222358704,0.7540846831412722,0.38113632798194885,0.5724289417266846,0.39200252294540405,0.6913857460021973,2.276942729949951,0.9977424144744873,,,,,,,
4603752000.0,84.37,1.190000057220459,12041169408.0,1781.0939259465683,165.0,0.011685818433761597,679936.0,1570.3943700790405,1.1190701143526383e-14,0.0,2.531681537628174,-0.025316821411252022,0.04330625385046005,-0.025316813960671425,-7.450580596923828e-09,0.0,-0.012474467046558857,0.2940714359283447,0.8228122257774898,0.5204356908798218,0.5992673635482788,0.5079612731933594,0.6986119151115417,2.299710273742676,0.9977710247039795,,,,,,,
4603752000.0,85.36,1.5199999809265137,12041169408.0,1832.4951418242574,166.0,0.012758636847138405,684032.0,1572.6295738220215,1.2040715646755018e-14,0.0,2.517183780670166,-0.025171834975481033,0.04228262975811958,-0.025171836838126183,1.862645149230957e-09,0.0,0.03678750619292259,0.28850001096725464,0.7027071128760887,0.6548193693161011,0.4662545621395111,0.6916067600250244,0.5291191935539246,2.235203742980957,0.997800350189209,,,,,,,
4603752000.0,90.48,2.0399999618530273,12041169408.0,1840.2344275134924,167.0,0.013986792415380478,688128.0,1574.8553771972656,1.2406742300186124e-14,0.0,2.494210958480835,-0.024942105636000633,0.0516643300652504,-0.02494210936129093,3.725290298461914e-09,0.0,0.028531933203339577,0.3202180862426758,0.7346789914072196,0.692808985710144,0.6088245511054993,0.7213410139083862,0.6216702461242676,2.2258033752441406,0.9977807998657227,,,,,,,
4603752000.0,90.89,1.9800000190734863,12041169408.0,1847.7785815233642,168.0,0.013544190675020218,692224.0,1577.0720930099487,1.4162282457874653e-14,0.0,2.4799907207489014,-0.024799909442663193,0.048471204936504364,-0.024799907580018044,-1.862645149230957e-09,0.0,0.0009490568190813065,0.31139233708381653,0.7881811156602281,0.725059986114502,0.6361309289932251,0.7260090112686157,0.6765899658203125,2.2167158126831055,0.9981515407562256,,,,,,,
4603752000.0,94.59,1.9800000190734863,12041169408.0,1776.2568466279452,169.0,0.01339789666235447,696320.0,1579.3780658245087,1.3950646193805483e-14,0.0,2.453812837600708,-0.02453811839222908,0.046192701905965805,-0.024538127705454826,9.313225746154785e-09,0.0,-0.0015198425389826298,0.3039829730987549,0.7650041657285495,0.7416887283325195,0.5580159425735474,0.7401688694953918,0.6270745396614075,2.3059728145599365,0.9977622032165527,,,,,,,
4603752000.0,98.78,1.9299999475479126,12041169408.0,1832.8053950179105,170.0,0.012189860455691814,700416.0,1581.6128911972046,1.3796255804443547e-14,0.0,2.428131341934204,-0.02428130991756916,0.06048831343650818,-0.02428131364285946,3.725290298461914e-09,0.0,0.023660162463784218,0.3470536470413208,0.7873634311262906,0.6833345890045166,0.6291607618331909,0.7069947719573975,0.7526232004165649,2.234825372695923,0.9984817504882812,,,,,,,
4603752000.0,99.01,2.1600000858306885,12041169408.0,1803.0603544940204,171.0,0.015544495545327663,704512.0,1583.8845844268799,1.514240122180155e-14,0.0,2.42805814743042,-0.024280577898025513,0.06107490137219429,-0.02428058162331581,3.725290298461914e-09,0.0,0.011070746928453445,0.3493666350841522,0.7992996400845547,0.7640827298164368,0.7588341236114502,0.7751534581184387,0.779843270778656,2.271693229675293,0.997687816619873,,,,,,,
4603752000.0,86.98,1.940000057220459,12041169408.0,1806.889115271779,172.0,0.012350372970104218,708608.0,1586.1514639854431,1.521872905474453e-14,0.0,2.415398359298706,-0.024153975769877434,0.04889174550771713,-0.02415398322045803,7.450580596923828e-09,0.0,0.012049183249473572,0.3125094175338745,0.7683907877749118,0.8257471323013306,0.567182183265686,0.8377963304519653,0.6493594646453857,2.2668795585632324,0.9978163242340088,,,,,,,
4603752000.0,98.51,1.8300000429153442,12041169408.0,1794.4980338189205,173.0,0.010377051308751106,712704.0,1588.43399643898,1.5735676650585617e-14,0.0,2.3974592685699463,-0.023974591866135597,0.0612635612487793,-0.023974591866135597,0.0,0.0,-0.05611821264028549,0.3455532193183899,0.7897992860404968,0.8140996694564819,0.6881144046783447,0.7579814791679382,0.7536988258361816,2.2825324535369873,0.9978330135345459,,,,,,,
4603752000.0,93.9,1.7999999523162842,12041169408.0,1836.1898006254637,174.0,0.014652770012617111,716800.0,1590.664702653885,1.5515366769136563e-14,0.0,2.368924617767334,-0.023689253255724907,0.0893867015838623,-0.02368924580514431,-7.450580596923828e-09,0.0,-0.020812608301639557,0.422355055809021,0.7079817324257925,0.8642719984054565,0.6859360933303833,0.8434593677520752,0.7815786600112915,2.230706214904785,0.9978046417236328,,,,,,,
4603752000.0,92.18,1.899999976158142,12041169408.0,1786.5151379713893,175.0,0.012210415676236153,720896.0,1592.9574344158173,1.4890866317784912e-14,0.0,2.383840560913086,-0.023838410153985023,0.05306394398212433,-0.023838404566049576,-5.122274160385132e-09,0.0,-0.008054399862885475,0.3257129192352295,0.8082568449962614,0.760093092918396,0.667813777923584,0.7520387172698975,0.7438324093818665,2.292731761932373,0.9978430271148682,,,,,,,
4603752000.0,98.25,2.0199999809265137,12041169408.0,1776.600155407162,176.0,0.012220604345202446,724992.0,1595.2629616260529,1.542516114838577e-14,0.0,2.378319263458252,-0.02378319390118122,0.049585048109292984,-0.023783192038536072,-1.862645149230957e-09,0.0,0.0037470036186277866,0.31492897868156433,0.7585319192079185,0.6624395847320557,0.5844867825508118,0.6661866307258606,0.6408889293670654,2.3055272102355957,0.9979183673858643,,,,,,,
4603752000.0,91.31,1.9700000286102295,12041169408.0,1843.5836345186729,177.0,0.014362034387886524,729088.0,1597.4847214221954,1.6604773112049998e-14,0.0,2.3491721153259277,-0.02349172532558441,0.05656551569700241,-0.023491719737648964,-5.587935447692871e-09,0.0,0.009769733995199203,0.3362486958503723,0.78059777648068,0.6289361715316772,0.6580385565757751,0.638705849647522,0.7178605794906616,2.221759796142578,0.9980762004852295,,,,,,,
4603752000.0,82.15,2.0299999713897705,12041169408.0,1832.6053899062997,178.0,0.01773228868842125,733184.0,1599.7197906970978,1.6698448179752745e-14,0.0,2.3169236183166504,-0.023169217631220818,0.046410709619522095,-0.02316923625767231,1.862645149230957e-08,0.0,0.009292947128415108,0.30456146597862244,0.813078070865494,0.8630698919296265,0.6322688460350037,0.8723628520965576,0.7044413685798645,2.2350692749023438,0.9981284141540527,,,,,,,
4603752000.0,79.92,2.25,12041169408.0,1820.2858934397796,179.0,0.016660671681165695,737280.0,1601.9699866771698,1.6563139748626554e-14,0.0,2.348048210144043,-0.023480486124753952,0.05067460238933563,-0.023480482399463654,-2.7939677238464355e-09,0.0,-0.008399652317166328,0.31828194856643677,0.818303199938209,0.8422234654426575,0.6764042377471924,0.8338238000869751,0.7466865181922913,2.2501959800720215,0.9978616237640381,,,,,,,
4603752000.0,84.87,2.130000114440918,12041169408.0,1826.5198221436701,180.0,0.01360856369137764,741376.0,1604.2125027179718,1.600108934241007e-14,0.0,2.3163108825683594,-0.023163102567195892,0.061002567410469055,-0.02316310815513134,5.587935447692871e-09,0.0,0.046452596783638,0.34623193740844727,0.7792131995906496,0.7104626893997192,0.5874831676483154,0.756915271282196,0.7368525862693787,2.242516040802002,0.9979455471038818,,,,,,,
4603752000.0,95.63,2.1500000953674316,12041169408.0,1801.9727224564326,181.0,0.01375732384622097,745472.0,1606.4855670928955,1.7381929229287607e-14,0.0,2.3540987968444824,-0.023540988564491272,0.06906253099441528,-0.023540986701846123,-2.7939677238464355e-09,0.0,-0.011782455258071423,0.3715103268623352,0.7504717000927056,0.777326226234436,0.6352869868278503,0.7655436992645264,0.7437225580215454,2.273064374923706,0.998239278793335,,,,,,,
4603752000.0,94.02,2.1700000762939453,12041169408.0,1791.0146450443613,182.0,0.014985959976911545,749568.0,1608.7725389003754,1.7154680453934645e-14,0.0,2.336287021636963,-0.02336287498474121,0.05125245824456215,-0.023362869396805763,-4.6566128730773926e-09,0.0,0.013644250109791756,0.3199120759963989,0.8244731676081046,0.9552966356277466,0.6733982563018799,0.9689409136772156,0.7635877132415771,2.2869718074798584,0.9981215000152588,,,,,,,
4603752000.0,97.4,2.1600000858306885,12041169408.0,1844.687231757295,183.0,0.012225545942783356,753664.0,1610.9929695129395,1.7746221159242737e-14,0.0,2.3337113857269287,-0.0233371090143919,0.08020076155662537,-0.023337112739682198,3.725290298461914e-09,0.0,-0.0008334945887327194,0.40054962038993835,0.7304955158813483,0.860025942325592,0.6294510364532471,0.859192430973053,0.7715663909912109,2.220430612564087,0.9990105628967285,,,,,,,
4603752000.0,98.39,2.240000009536743,12041169408.0,1785.7944256387148,184.0,0.015893632546067238,757760.0,1613.2866265773773,1.8556337022523905e-14,0.0,2.295499086380005,-0.022955000400543213,0.08096737414598465,-0.022954991087317467,-9.313225746154785e-09,0.0,-0.020913109183311462,0.4019164443016052,0.7205733858921123,0.8494190573692322,0.64891117811203,0.8285059928894043,0.7603296041488647,2.293657064437866,0.9978911876678467,,,,,,,
4603752000.0,87.89,2.2100000381469727,12041169408.0,1815.3875431765423,185.0,0.017260782420635223,761856.0,1615.5428941249847,1.8179902028236938e-14,0.0,2.3161327838897705,-0.023161329329013824,0.07992257922887802,-0.023161327466368675,-1.862645149230957e-09,0.0,-0.054902706295251846,0.3960670828819275,0.7785245528017553,0.8861333131790161,0.7316063642501831,0.8312305212020874,0.8416004776954651,2.256267547607422,0.9981405735015869,,,,,,,
4603752000.0,85.07,2.259999990463257,12041169408.0,1773.025531555657,186.0,0.014654243364930153,765952.0,1617.8530695438385,1.822327011513636e-14,0.0,2.281759262084961,-0.022817589342594147,0.07849536091089249,-0.022817591205239296,1.862645149230957e-09,0.0,0.0013210400938987732,0.39626672863960266,0.7663142357767995,0.973182201385498,0.6702053546905518,0.9745031595230103,0.8197311162948608,2.3101754188537598,0.9980199337005615,,,,,,,
4603752000.0,91.94,2.380000114440918,12041169408.0,1802.2386937509468,187.0,0.013731743209064007,770048.0,1620.1257984638214,1.9866053246886395e-14,0.0,2.267763614654541,-0.022677632048726082,0.08676734566688538,-0.02267763577401638,3.725290298461914e-09,0.0,0.026702938601374626,0.41576898097991943,0.7723287533488592,0.9095691442489624,0.7780553102493286,0.9362720251083374,0.871360719203949,2.27272891998291,0.9980294704437256,,,,,,,
4603752000.0,105.46,2.450000047683716,12041169408.0,1855.9123881690841,188.0,0.01479206420481205,774144.0,1622.3327991962433,1.948788352912345e-14,0.0,2.251385450363159,-0.022513847798109055,0.08428392559289932,-0.022513853386044502,5.587935447692871e-09,0.0,0.00498404074460268,0.4105899930000305,0.7991279994255733,1.0309315919876099,0.7956316471099854,1.0359156131744385,0.9161121249198914,2.207000732421875,0.9978060722351074,,,,,,,
4603752000.0,110.53,2.450000047683716,12041169408.0,1819.915662898205,189.0,0.01570548489689827,778240.0,1624.5834529399872,2.009156729876338e-14,0.0,2.2262401580810547,-0.02226240560412407,0.0925273597240448,-0.02226240187883377,-3.725290298461914e-09,0.0,-0.03133167326450348,0.4290897250175476,0.7185342249236333,0.986215353012085,0.6875666379928589,0.9548836946487427,0.8087890148162842,2.2506537437438965,0.9981858730316162,,,,,,,
4603752000.0,98.86,2.8299999237060547,12041169408.0,1770.5572416857894,190.0,0.020882664248347282,782336.0,1626.8968489170074,2.0967602654131667e-14,0.0,2.2322444915771484,-0.022322440519928932,0.09856806695461273,-0.02232244424521923,3.725290298461914e-09,0.0,0.006348824128508568,0.4440089762210846,0.7509146299798554,1.0293328762054443,0.7891969084739685,1.0356817245483398,0.8896468281745911,2.3133959770202637,0.9979794025421143,,,,,,,
4603752000.0,89.85,2.6600000858306885,12041169408.0,1818.1837522560784,191.0,0.01615842618048191,786432.0,1629.1496465206146,1.9647478088913317e-14,0.0,2.2521371841430664,-0.0225213710218668,0.06716541200876236,-0.0225213710218668,0.0,0.0,-0.009820033796131611,0.3664248585700989,0.823410599622791,0.9198678731918335,0.7926045060157776,0.9100477695465088,0.8719720840454102,2.2527976036071777,0.9978127479553223,,,,,,,
,,,,,,,,,,,,,,,,,,,,,,,,,,0.06173998862504959,0.11276359856128693,0.07820665091276169,0.06173998862504959,0.11276359856128693,0.07820665091276169,
,,,,,,,,,,,,,,,,,,,,,,,,,,0.014713599346578121,0.07518980652093887,0.07069437205791473,0.014713599346578121,0.07518980652093887,0.07069437205791473,
,,,,,,,,,,,,,,,,,,,,,,,,,,0.011714369989931583,0.0685829445719719,0.0667627677321434,0.011714369989931583,0.0685829445719719,0.0667627677321434,
,,,,,,,,,,,,,,,,,,,,,,,,,,0.009572923183441162,0.06575530022382736,0.06112763658165932,0.009572923183441162,0.06575530022382736,0.06112763658165932,
,,,,,,,,,,,,,,,,,,,,,,,,,,0.00840347446501255,0.06139378622174263,0.05789104849100113,0.00840347446501255,0.06139378622174263,0.05789104849100113,
,,,,,,,,,,,,,,,,,,,,,,,,,,0.008917639032006264,0.05986596271395683,0.056244347244501114,0.008917639032006264,0.05986596271395683,0.056244347244501114,
,,,,,,,,,,,,,,,,,,,,,,,,,,,,,,,,2.04
4604980000.0,93.66,2.6700000762939453,11990521856.0,16.96969622114969,192.0,0.01842106133699417,790528.0,1870.5210857391357,1.7199783264310042e-14,0.0,2.268711805343628,-0.02268712781369686,0.04539696127176285,-0.022687116637825966,-1.1175870895385742e-08,0.0,0.11790846288204193,0.2773270308971405,0.8866574453929682,0.8222249150276184,0.7234688401222229,0.9401334524154663,0.8237506151199341,241.37143921852112,0.9976682662963867,,,,,,,
4604980000.0,97.62,2.9000000953674316,12041169408.0,1830.452676524692,193.0,0.020087318494915962,794624.0,1872.7587835788727,1.639140212450485e-14,0.0,2.255171537399292,-0.022551698610186577,0.1332617700099945,-0.02255171537399292,1.6763806343078613e-08,0.0,0.1281859576702118,0.5001529455184937,0.7087607046934985,0.7756074666976929,0.7297786474227905,0.903793454170227,0.926782488822937,2.2376978397369385,0.9976975917816162,,,,,,,
4604980000.0,96.34,3.0799999237060547,12041169408.0,1832.2981357344372,194.0,0.018850158900022507,798720.0,1874.9942276477814,1.6450382722688062e-14,0.0,2.2314653396606445,-0.022314652800559998,0.03968317434191704,-0.022314652800559998,0.0,0.0,0.037785619497299194,0.2792089581489563,0.8773256406665969,0.842782735824585,0.7134504318237305,0.8805683851242065,0.7971727252006531,2.2354440689086914,0.9977858066558838,,,,,,,
4604980000.0,93.34,2.619999885559082,12041169408.0,1834.7431862213368,195.0,0.014137008227407932,802816.0,1877.2266926765442,1.6795592694407446e-14,0.0,2.2315597534179688,-0.022315600886940956,0.05992453545331955,-0.022315597161650658,-3.725290298461914e-09,0.0,0.0044917818158864975,0.34620538353919983,0.8323016834998357,0.8757503032684326,0.7285171151161194,0.880242109298706,0.8454140424728394,2.2324650287628174,0.9983446598052979,,,,,,,
4604980000.0,100.27,2.609999895095825,12041169408.0,1786.1451454638118,196.0,0.014891201630234718,806912.0,1879.5198993682861,1.6917023337725823e-14,0.0,2.2824010848999023,-0.022824008017778397,0.06324420869350433,-0.022824009880423546,1.862645149230957e-09,0.0,0.029986638575792313,0.3544289469718933,0.8626711683334104,1.0138875246047974,0.8489170670509338,1.0438742637634277,0.9564194679260254,2.2932066917419434,0.998037576675415,,,,,,,
4604980000.0,108.19,2.4700000286102295,12041169408.0,1851.2819992704729,197.0,0.013527242466807365,811008.0,1881.73242020607,1.765775026196792e-14,0.0,2.223982095718384,-0.022239815443754196,0.07116290926933289,-0.022239821031689644,5.587935447692871e-09,0.0,0.019445735961198807,0.3768054246902466,0.7988975976477356,1.0077006816864014,0.7800309062004089,1.027146339416504,0.8402499556541443,2.2125208377838135,0.9979262351989746,,,,,,,
4604980000.0,115.15,2.440000057220459,12041169408.0,1858.8723401584837,198.0,0.011099115014076233,815104.0,1883.9359066486359,1.8126125600481657e-14,0.0,2.2400131225585938,-0.022400125861167908,0.09789743274450302,-0.022400131449103355,5.587935447692871e-09,0.0,-0.08232022076845169,0.43481534719467163,0.749497027927896,1.0520002841949463,0.8047877550125122,0.9696800708770752,0.8687571287155151,2.203486442565918,0.9977455139160156,,,,,,,
4604980000.0,115.35,2.309999942779541,12041169408.0,1784.6268479936143,199.0,0.01338369119912386,819200.0,1886.2310643196106,1.7090495685323503e-14,0.0,2.231092929840088,-0.022310929372906685,0.08406686037778854,-0.022310929372906685,0.0,0.0,-0.04702303558588028,0.4073856472969055,0.8101885708784601,1.2228944301605225,0.9001266360282898,1.1758713722229004,0.9350707530975342,2.2951576709747314,0.9979302883148193,,,,,,,
4604980000.0,113.76,2.2899999618530273,12041169408.0,1801.7722089517927,200.0,0.01140735112130642,823296.0,1888.5043816566467,1.7720200307103084e-14,0.0,2.175906181335449,-0.021759064868092537,0.16175544261932373,-0.02175906114280224,-3.259629011154175e-09,0.0,-0.13311684131622314,0.5530510544776917,0.7328715806128985,1.4245269298553467,0.9343189597129822,1.2914100885391235,1.0700526237487793,2.273317337036133,0.9979331493377686,,,,,,,
4604980000.0,117.37,2.3299999237060547,12041169408.0,1788.2162504920755,201.0,0.011261113919317722,827392.0,1890.7949323654175,1.9538190509926778e-14,0.0,2.1575536727905273,-0.021575529128313065,0.09559310972690582,-0.02157553657889366,7.450580596923828e-09,0.0,-0.10197509825229645,0.4252428114414215,0.832883145941711,1.231506586074829,1.0457313060760498,1.1295315027236938,1.0402238368988037,2.290550708770752,0.997955322265625,,,,,,,
4604980000.0,109.55,1.7999999523162842,12041169408.0,1737.722757068858,202.0,0.004869130440056324,831488.0,1893.1520402431488,1.993370746244949e-14,0.0,2.093358278274536,-0.020933600142598152,0.13794168829917908,-0.02093358151614666,-1.862645149230957e-08,0.0,-0.09680186212062836,0.516311764717102,0.7586397395494255,1.0299808979034424,0.899022102355957,0.9331790208816528,1.0509430170059204,2.3571078777313232,0.9977214336395264,,,,,,,
4604980000.0,106.26,1.340000033378601,12041169408.0,1835.8534853804895,203.0,0.010506510734558105,835584.0,1895.3831551074982,1.8395007739258062e-14,0.0,2.1620049476623535,-0.021620044484734535,0.08673763275146484,-0.021620048210024834,3.725290298461914e-09,0.0,-0.03160194307565689,0.4153537154197693,0.7742347351722354,0.8109885454177856,0.809472382068634,0.7793866395950317,0.874157190322876,2.2311148643493652,0.9979836940765381,,,,,,,
4604980000.0,107.95,1.590000033378601,12041169408.0,1833.9446725209586,204.0,0.014157477766275406,839680.0,1897.616592168808,1.7383663952763584e-14,0.0,2.1686758995056152,-0.021686751395463943,0.06124167889356613,-0.02168675884604454,7.450580596923828e-09,0.0,0.024560673162341118,0.3491559624671936,0.8253380413045256,0.8550136089324951,0.7464464902877808,0.8795742988586426,0.8354496955871582,2.2334370613098145,0.998159646987915,,,,,,,
4604980000.0,112.85,2.390000104904175,12041169408.0,1836.0936419162636,205.0,0.015838420018553734,843776.0,1899.8474152088165,1.8707257964933888e-14,0.0,2.141728401184082,-0.021417278796434402,0.15213991701602936,-0.02141728438436985,5.587935447692871e-09,0.0,0.10435347259044647,0.5417211651802063,0.5990865508521336,0.6921710968017578,0.653329074382782,0.7965245842933655,0.8555600643157959,2.230823040008545,0.998049259185791,,,,,,,
4604980000.0,116.54,2.859999895095825,12041169408.0,1762.1349179949707,206.0,0.015999479219317436,847872.0,1902.1718683242798,1.7463461232658517e-14,0.0,2.1397430896759033,-0.021397430449724197,0.03540227934718132,-0.021397430449724197,0.0,0.0,0.07672884315252304,0.25481975078582764,0.7973427028884922,0.648300290107727,0.5241437554359436,0.7250291705131531,0.5660462975502014,2.324453115463257,0.997736930847168,,,,,,,
4604980000.0,123.68,3.2300000190734863,12041169408.0,1798.2522680341583,207.0,0.016300052404403687,851968.0,1904.4496355056763,1.884777056648801e-14,0.0,2.1134819984436035,-0.02113482356071472,0.04548513516783714,-0.021134819835424423,-3.725290298461914e-09,0.0,0.09502407908439636,0.2862878143787384,0.7851268962164513,0.6371119022369385,0.5803620219230652,0.7321359515190125,0.617606520652771,2.2777671813964844,0.9982779026031494,,,,,,,
4604980000.0,113.37,2.9800000190734863,12041169408.0,1791.291398931035,208.0,0.019336409866809845,856064.0,1906.736253976822,1.8131329770909588e-14,0.0,2.1121129989624023,-0.021121138706803322,0.07209475338459015,-0.021121129393577576,-9.313225746154785e-09,0.0,0.11220647394657135,0.3628103733062744,0.701118767055561,0.6793708801269531,0.6240793466567993,0.7915773391723633,0.6636366248130798,2.28661847114563,0.9979047775268555,,,,,,,
4604980000.0,114.78,3.0999999046325684,12041169408.0,1782.1871819101023,209.0,0.01598457247018814,860160.0,1909.034553527832,1.7352438930196e-14,0.0,2.1208510398864746,-0.021208496764302254,0.061352722346782684,-0.0212085098028183,1.30385160446167e-08,0.0,0.08269275724887848,0.3404344916343689,0.7597361788229399,0.5754512548446655,0.5797700881958008,0.658143937587738,0.6945273876190186,2.298299551010132,0.9980735778808594,,,,,,,
4604980000.0,103.82,2.7699999809265137,12041169408.0,1863.5390051012328,210.0,0.015060064382851124,864256.0,1911.2325220108032,1.8783585797876867e-14,0.0,2.090534210205078,-0.020905349403619766,0.07916278392076492,-0.02090534195303917,-7.450580596923828e-09,0.0,0.07144717127084732,0.3914821445941925,0.7471165801433715,0.6207215189933777,0.5797250866889954,0.6921687722206116,0.7784877419471741,2.1979684829711914,0.997779369354248,,,,,,,
4604980000.0,113.71,3.2200000286102295,12041169408.0,1745.616891684968,211.0,0.021278703585267067,868352.0,1913.5789704322815,1.917389857997165e-14,0.0,2.1168670654296875,-0.021168652921915054,0.12933877110481262,-0.021168669685721397,1.5832483768463135e-08,0.0,0.18154561519622803,0.4751567244529724,0.6323057926084477,0.768202543258667,0.6125221252441406,0.949748158454895,0.7835982441902161,2.3464484214782715,0.9980320930480957,,,,,,,
4604980000.0,113.61,3.4200000762939453,12041169408.0,1715.0161673948387,212.0,0.021103210747241974,872448.0,1915.9672861099243,1.9343901480617376e-14,0.0,2.087031602859497,-0.020870307460427284,0.10821036994457245,-0.02087031491100788,7.683411240577698e-09,0.0,0.16382911801338196,0.4354619085788727,0.7375276911270225,0.8090966939926147,0.6590872406959534,0.9729257822036743,0.8499793410301208,2.3883156776428223,0.997840166091919,,,,,,,
4604980000.0,123.79,3.9800000190734863,12041169408.0,1787.3725417328137,213.0,0.020155616104602814,876544.0,1918.2589180469513,1.918430692082751e-14,0.0,2.1044139862060547,-0.021044138818979263,0.08417940139770508,-0.021044138818979263,0.0,0.0,0.11012858152389526,0.3953082859516144,0.8064116894769997,1.1219033002853394,0.7427825331687927,1.2320318222045898,0.8984550833702087,2.2916319370269775,0.9979698657989502,,,,,,,
4604980000.0,117.03,3.809999942779541,12041169408.0,1788.7174573281438,214.0,0.016352884471416473,880640.0,1920.548826932907,1.983656294779479e-14,0.0,2.0973196029663086,-0.0209732037037611,0.08173501491546631,-0.020973196253180504,-7.450580596923828e-09,0.0,0.059497471898794174,0.3999614119529724,0.8460248723368708,1.233359456062317,0.8811939358711243,1.2928569316864014,1.0192784070968628,2.2899088859558105,0.9977478981018066,,,,,,,
4604980000.0,125.9,3.880000114440918,12041169408.0,1839.6637505953788,215.0,0.016183046624064445,884736.0,1922.7753207683563,2.02320799003175e-14,0.0,2.067507028579712,-0.02067507803440094,0.12084841728210449,-0.020675070583820343,-7.450580596923828e-09,0.0,-0.01983356475830078,0.49128642678260803,0.794817130513612,1.3149422407150269,0.8992224931716919,1.2951087951660156,1.0845867395401,2.2264938354492188,0.9978384971618652,,,,,,,
4604980000.0,127.17,3.25,12041169408.0,1844.9946925391735,216.0,0.012408926151692867,888832.0,1924.9953813552856,1.9925033845069606e-14,0.0,2.0773513317108154,-0.020773520693182945,0.10405983775854111,-0.02077351324260235,-7.450580596923828e-09,0.0,-0.06980089843273163,0.4508848488330841,0.6947495980574079,1.217521071434021,0.73137366771698,1.1477200984954834,0.8160890340805054,2.2200605869293213,0.9978022575378418,,,,,,,
4604980000.0,119.45,2.9200000762939453,12041169408.0,1815.2720682446059,217.0,0.017277594655752182,892928.0,1927.2517924308777,1.9907686610309838e-14,0.0,2.1153481006622314,-0.021153468638658524,0.18039485812187195,-0.02115347981452942,1.0244548320770264e-08,0.0,-0.0035632322542369366,0.6007204651832581,0.7093480633647465,1.5579228401184082,0.8821181654930115,1.5543596744537354,1.1142581701278687,2.256411075592041,0.9981725215911865,,,,,,,
4604980000.0,123.06,3.119999885559082,12041169408.0,1835.5478867960492,218.0,0.019046600908041,897024.0,1929.4832787513733,1.9033385978417527e-14,0.0,2.105419874191284,-0.021054187789559364,0.18324759602546692,-0.02105419896543026,1.1175870895385742e-08,0.0,0.052345141768455505,0.6031948328018188,0.7798591021099583,1.892737627029419,1.0841538906097412,1.9450829029083252,1.2856042385101318,2.2314863204956055,0.9979424476623535,,,,,,,
4604980000.0,132.9,3.859999895095825,12041169408.0,1803.256990744225,219.0,0.018882784992456436,901120.0,1931.754724264145,1.893450674028685e-14,0.0,2.117382049560547,-0.02117381989955902,0.1557326316833496,-0.02117381989955902,0.0,0.0,-0.012542769312858582,0.558017909526825,0.77950228681171,1.9685343503952026,1.0713211297988892,1.9559916257858276,1.188354730606079,2.2714455127716064,0.9978842735290527,,,,,,,
4604980000.0,135.18,3.740000009536743,12041169408.0,1809.1366502495216,220.0,0.015102999284863472,905216.0,1934.0187876224518,1.9040324872321435e-14,0.0,2.068631649017334,-0.020686302334070206,0.14982151985168457,-0.02068631537258625,1.210719347000122e-08,0.0,-0.09208352863788605,0.539661705493927,0.8557918246336212,2.075653553009033,1.2512906789779663,1.9835699796676636,1.4211066961288452,2.2640633583068848,0.9978973865509033,,,,,,,
4604980000.0,136.15,3.8399999141693115,12041169408.0,1844.436505219269,221.0,0.019310202449560165,909312.0,1936.239520072937,2.0039525594484076e-14,0.0,2.1061501502990723,-0.021061496809124947,0.17134082317352295,-0.021061500534415245,3.725290298461914e-09,0.0,-0.06047302857041359,0.5823293328285217,0.7788386307397467,2.1506400108337402,1.1150317192077637,2.0901670455932617,1.238266110420227,2.2207324504852295,0.9978806972503662,,,,,,,
4604980000.0,126.65,3.440000057220459,12041169408.0,1761.3559041499318,222.0,0.01523897610604763,913408.0,1938.5650012493134,2.0396878630535298e-14,0.0,2.1325573921203613,-0.021325571462512016,0.15079496800899506,-0.021325573325157166,1.862645149230957e-09,0.0,-0.06933540850877762,0.5448440313339233,0.8123510344198104,1.8846015930175781,1.1123197078704834,1.8152661323547363,1.2577637434005737,2.3254811763763428,0.9983651638031006,,,,,,,
4604980000.0,131.51,3.819999933242798,12041169408.0,1809.1174087175903,223.0,0.01990407705307007,917504.0,1940.8290886878967,2.0849641457765244e-14,0.0,2.0754711627960205,-0.02075471356511116,0.15338701009750366,-0.02075471170246601,-9.313225746154785e-10,0.0,-0.06109124794602394,0.5505596399307251,0.836424240063491,2.2017664909362793,1.2738670110702515,2.1406750679016113,1.361271858215332,2.264087438583374,0.9978628158569336,,,,,,,
,,,,,,,,,,,,,,,,,,,,,,,,,,0.03630363941192627,0.25355541706085205,0.23670537769794464,0.03630363941192627,0.25355541706085205,0.23670537769794464,
,,,,,,,,,,,,,,,,,,,,,,,,,,0.01926535740494728,0.19546489417552948,0.19252634048461914,0.01926535740494728,0.19546489417552948,0.19252634048461914,
,,,,,,,,,,,,,,,,,,,,,,,,,,0.01394442468881607,0.17767903208732605,0.17464347183704376,0.01394442468881607,0.17767903208732605,0.17464347183704376,
,,,,,,,,,,,,,,,,,,,,,,,,,,0.011752818711102009,0.1686384081840515,0.16500073671340942,0.011752818711102009,0.1686384081840515,0.16500073671340942,
,,,,,,,,,,,,,,,,,,,,,,,,,,0.01356570515781641,0.16372305154800415,0.1626429259777069,0.01356570515781641,0.16372305154800415,0.1626429259777069,
,,,,,,,,,,,,,,,,,,,,,,,,,,0.011467698961496353,0.15649980306625366,0.14881570637226105,0.011467698961496353,0.15649980306625366,0.14881570637226105,
,,,,,,,,,,,,,,,,,,,,,,,,,,,,,,,,2.75
4605120000.0,131.56,4.019999980926514,11990521856.0,17.01786932975593,224.0,0.021883441135287285,921600.0,2181.517268896103,1.9899012992929954e-14,0.0,2.0495171546936035,-0.020495187491178513,0.10403826087713242,-0.02049517072737217,-1.5832483768463135e-08,0.0,0.06329913437366486,0.45179590582847595,0.8316416042955638,1.2377045154571533,0.9360015988349915,1.3010036945343018,1.1010953187942505,240.68818020820618,0.9974551200866699,,,,,,,
4605120000.0,125.98,4.099999904632568,12041169408.0,1831.479294745043,225.0,0.018984492868185043,925696.0,2183.753712415695,2.0027382530152238e-14,0.0,2.092569351196289,-0.020925698801875114,0.08282410353422165,-0.020925693213939667,-5.587935447692871e-09,0.0,0.10417284816503525,0.3934895694255829,0.8980769693122347,1.312638282775879,1.0947668552398682,1.416811227798462,1.232528805732727,2.236443519592285,0.9974539279937744,,,,,,,
4605120000.0,131.21,4.429999828338623,12041169408.0,1783.834122514619,226.0,0.019906887784600258,929792.0,2186.0498900413513,2.0896478991616618e-14,0.0,2.0473954677581787,-0.020473942160606384,0.12005385011434555,-0.02047395333647728,1.1175870895385742e-08,0.0,0.07773253321647644,0.4838620722293854,0.8487870573365777,1.5460638999938965,1.0429940223693848,1.6237964630126953,1.2443058490753174,2.296177625656128,0.9972145557403564,,,,,,,
4605120000.0,133.04,4.389999866485596,12041169408.0,1830.3050521704833,227.0,0.018065795302391052,933888.0,2188.2877683639526,2.042289948267495e-14,0.0,2.060486316680908,-0.02060486562550068,0.12275953590869904,-0.02060486190021038,-3.725290298461914e-09,0.0,0.016743725165724754,0.4952763020992279,0.7847555023483151,1.259700894355774,0.9998046159744263,1.276444673538208,1.0675334930419922,2.2378783226013184,0.997551441192627,,,,,,,
4605120000.0,134.42,3.75,12041169408.0,1818.6545393878264,228.0,0.014445070177316666,937984.0,2190.5399827957153,1.891715950552708e-14,0.0,2.0826690196990967,-0.020826688036322594,0.1099189966917038,-0.020826689898967743,1.862645149230957e-09,0.0,-0.02094247192144394,0.4684581458568573,0.8205488251043258,1.2797231674194336,0.9877006411552429,1.258780837059021,1.10585355758667,2.2522144317626953,0.9974274635314941,,,,,,,
4605120000.0,126.98,3.309999942779541,12041169408.0,1858.7930978743166,229.0,0.01579572632908821,942080.0,2192.7435631752014,2.00152394658204e-14,0.0,2.0924012660980225,-0.020924007520079613,0.06857701390981674,-0.02092401310801506,5.587935447692871e-09,0.0,0.029433598741889,0.3692166805267334,0.9015500360729836,1.521714687347412,1.093908667564392,1.5511481761932373,1.1767210960388184,2.203580379486084,0.997382640838623,,,,,,,
4605120000.0,127.2,3.130000114440918,12041169408.0,1837.0018601122056,230.0,0.015522552654147148,946176.0,2194.973283290863,1.954859885078264e-14,0.0,2.105623722076416,-0.021056225523352623,0.17366385459899902,-0.02105623669922352,1.1175870895385742e-08,0.0,0.0378541424870491,0.588200032711029,0.814466861882257,1.5181223154067993,1.1659660339355469,1.555976390838623,1.3655707836151123,2.229720115661621,0.9973232746124268,,,,,,,
4605120000.0,139.38,3.5399999618530273,12041169408.0,1864.4594089010925,231.0,0.015179675072431564,950272.0,2197.1701667308807,1.9404616802276564e-14,0.0,2.0986392498016357,-0.020986394956707954,0.13431479036808014,-0.020986391231417656,-3.725290298461914e-09,0.0,0.0949331521987915,0.5095887184143066,0.791977533282834,1.7610851526260376,1.0402685403823853,1.856018304824829,1.1172868013381958,2.1968834400177,0.9980912208557129,,,,,,,
4605120000.0,154.39,4.059999942779541,12041169408.0,1790.7695222465718,232.0,0.01671241596341133,954368.0,2199.457451581955,1.8745421881405377e-14,0.0,2.1180601119995117,-0.02118059992790222,0.195676788687706,-0.02118059992790222,9.313225746154785e-10,0.0,0.02543511614203453,0.6251416206359863,0.8320193564605152,1.631160020828247,1.3927583694458008,1.656595230102539,1.5252772569656372,2.2872848510742188,0.9973828792572021,,,,,,,
4605120000.0,156.21,4.170000076293945,12041169408.0,1816.8324125370427,233.0,0.014900613576173782,958464.0,2201.711924791336,1.8561541192951836e-14,0.0,2.1354246139526367,-0.02135423943400383,0.1614016741514206,-0.021354245021939278,5.587935447692871e-09,0.0,0.058269381523132324,0.5652309656143188,0.8183803884103684,1.4254447221755981,1.1503580808639526,1.483713984489441,1.3263084888458252,2.2544732093811035,0.9975848197937012,,,,,,,
4605120000.0,160.57,4.360000133514404,12041169408.0,1770.0909619373967,234.0,0.020557593554258347,962560.0,2204.0259301662445,1.7933571294648232e-14,0.0,2.1045150756835938,-0.021045155823230743,0.1559416949748993,-0.021045150235295296,-5.587935447692871e-09,0.0,0.05506086349487305,0.5558121204376221,0.8371902452194196,1.840307354927063,1.2933756113052368,1.895368218421936,1.3774876594543457,2.3140053749084473,0.9977366924285889,,,,,,,
4605120000.0,137.94,4.090000152587891,12041169408.0,1791.030889367242,235.0,0.021138861775398254,966656.0,2206.312881231308,1.7685505837583548e-14,0.0,2.1012420654296875,-0.02101241797208786,0.1696091592311859,-0.02101241983473301,1.862645149230957e-09,0.0,-0.05392174422740936,0.5799938440322876,0.7596884421908353,2.027738571166992,1.073793888092041,1.9738171100616455,1.1831400394439697,2.2869510650634766,0.9979598522186279,,,,,,,
4605120000.0,128.1,3.9100000858306885,12041169408.0,1793.557382580604,236.0,0.016042130067944527,970752.0,2208.5966107845306,1.806541027882247e-14,0.0,2.0841078758239746,-0.020841093733906746,0.20211167633533478,-0.020841078832745552,-1.4901161193847656e-08,0.0,-0.157087504863739,0.6161490082740784,0.7946709972301383,1.926550030708313,1.3120884895324707,1.7694627046585083,1.3597546815872192,2.2837295532226562,0.9976983070373535,,,,,,,
4605120000.0,114.39,3.25,12041169408.0,1793.133372459704,237.0,0.017080366611480713,974848.0,2210.880880355835,1.8693380177126073e-14,0.0,2.0869297981262207,-0.020869305357336998,0.14745765924453735,-0.0208692979067564,-7.450580596923828e-09,0.0,-0.06717497855424881,0.5389562249183655,0.8445948526960578,1.9085365533828735,1.286790370941162,1.8413615226745605,1.3671643733978271,2.2842695713043213,0.9978673458099365,,,,,,,
4605120000.0,111.09,3.009999990463257,12041169408.0,1813.8379132385521,238.0,0.018566105514764786,978944.0,2213.1390755176544,1.8606644003327233e-14,0.0,2.101059913635254,-0.02101060375571251,0.12620976567268372,-0.02101059816777706,-5.587935447692871e-09,0.0,-0.0072470735758543015,0.5024227499961853,0.885548775023534,1.8595227003097534,1.370392918586731,1.8522756099700928,1.4851114749908447,2.258195161819458,0.9974627494812012,,,,,,,
4605120000.0,114.94,3.3399999141693115,12041169408.0,1863.134404155754,239.0,0.017860691994428635,983040.0,2215.337521314621,1.723447773382958e-14,0.0,2.124192476272583,-0.021241912618279457,0.14017675817012787,-0.021241923794150352,1.1175870895385742e-08,0.0,-0.030423738062381744,0.5286739468574524,0.8438962824697008,1.3995914459228516,1.2028276920318604,1.3691678047180176,1.3380776643753052,2.1984457969665527,0.9980642795562744,,,,,,,
4605120000.0,126.01,3.640000104904175,12041169408.0,1839.2279020919502,240.0,0.01601271703839302,987136.0,2217.5645427703857,1.9718601751428366e-14,0.0,2.0665130615234375,-0.020665137097239494,0.12755391001701355,-0.020665129646658897,-7.450580596923828e-09,0.0,0.025558607652783394,0.5044965147972107,0.8541847229553186,1.993877649307251,1.2532379627227783,2.0194363594055176,1.3211638927459717,2.2270214557647705,0.9976270198822021,,,,,,,
4605120000.0,136.61,4.130000114440918,12041169408.0,1862.5657943366944,241.0,0.018741220235824585,991232.0,2219.7636597156525,1.7340295865864164e-14,0.0,2.077348232269287,-0.020773472264409065,0.1561860591173172,-0.02077348157763481,9.313225746154785e-09,0.0,0.0358792245388031,0.557817816734314,0.8765524602175486,1.9423177242279053,1.473398208618164,1.9781968593597412,1.5876368284225464,2.1991169452667236,0.9976997375488281,,,,,,,
4605120000.0,142.9,4.260000228881836,12041169408.0,1842.6266042128043,242.0,0.017789326608181,995328.0,2221.986573457718,1.789020320774881e-14,0.0,2.069065570831299,-0.02069064788520336,0.1784168779850006,-0.02069065533578396,7.450580596923828e-09,0.0,0.04831967130303383,0.5954708456993103,0.8052620812893787,1.7817811965942383,1.2624244689941406,1.8301008939743042,1.3493831157684326,2.2229137420654297,0.9975736141204834,,,,,,,
4605120000.0,161.89,4.699999809265137,12041169408.0,1868.5280578808708,243.0,0.015985339879989624,999424.0,2224.1786732673645,1.8202453433424637e-14,0.0,2.0627219676971436,-0.020627224817872047,0.1250922828912735,-0.0206272192299366,-5.587935447692871e-09,0.0,-0.029826365411281586,0.49935540556907654,0.8276641475150359,1.511491060256958,1.1772994995117188,1.4816646575927734,1.2028790712356567,2.1920998096466064,0.9973387718200684,,,,,,,
4605120000.0,155.95,4.579999923706055,12041169408.0,1849.2318992132955,244.0,0.019268862903118134,1003520.0,2226.39364695549,1.87436871579294e-14,0.0,2.0803987979888916,-0.020803997293114662,0.11502252519130707,-0.020803987979888916,-9.313225746154785e-09,0.0,0.028699064627289772,0.47882917523384094,0.8974096996163461,2.0847010612487793,1.3640080690383911,2.1133999824523926,1.4949527978897095,2.2149736881256104,0.9974226951599121,,,,,,,
4605120000.0,152.96,4.25,12041169408.0,1830.2520146242298,245.0,0.01419098675251007,1007616.0,2228.631590127945,1.936298343885312e-14,0.0,2.1278281211853027,-0.021278267726302147,0.13130199909210205,-0.02127828076481819,1.30385160446167e-08,0.0,0.017906419932842255,0.5121985673904419,0.8521688188231792,1.8990345001220703,1.21503746509552,1.9169410467147827,1.332157015800476,2.237943172454834,0.997638463973999,,,,,,,
4605120000.0,159.22,4.650000095367432,12041169408.0,1812.6781430395426,246.0,0.021140798926353455,1011712.0,2230.8912301063538,1.9191245814731417e-14,0.0,2.1025500297546387,-0.02102549746632576,0.2520999014377594,-0.02102549932897091,1.862645149230957e-09,0.0,0.052159179002046585,0.7082384824752808,0.8217812472039218,2.0863852500915527,1.4013415575027466,2.1385443210601807,1.677655577659607,2.2596399784088135,0.9975907802581787,,,,,,,
4605120000.0,157.13,4.730000019073486,12041169408.0,1808.3300002126225,247.0,0.016603289172053337,1015808.0,2233.1563034057617,1.9376861226660935e-14,0.0,2.1480610370635986,-0.0214806217700243,0.2410075068473816,-0.021480610594153404,-1.1175870895385742e-08,0.0,-0.015479179099202156,0.694185197353363,0.8123335109956105,1.7037001848220825,1.316299557685852,1.6882209777832031,1.6024407148361206,2.265073299407959,0.9974942207336426,,,,,,,
4605120000.0,144.11,4.210000038146973,12041169408.0,1797.0709804508988,248.0,0.011033793911337852,1019904.0,2235.435567855835,1.7104373473131318e-14,0.0,2.1789872646331787,-0.02178986743092537,0.1508246511220932,-0.021789873018860817,4.6566128730773926e-09,0.0,-0.08527210354804993,0.5426324009895325,0.8351602827551754,1.8441873788833618,1.2709144353866577,1.7589153051376343,1.3365176916122437,2.279264450073242,0.9982802867889404,,,,,,,
4605120000.0,141.95,4.0,12041169408.0,1848.8848205938496,249.0,0.01834343932569027,1024000.0,2237.6509573459625,1.7562340470789195e-14,0.0,2.167006492614746,-0.021670054644346237,0.16448894143104553,-0.021670063957571983,9.313225746154785e-09,0.0,0.012805809266865253,0.5734929442405701,0.8256850732380753,1.8483567237854004,1.3129290342330933,1.8611626625061035,1.3736017942428589,2.2153894901275635,0.9979932308197021,,,,,,,
4605120000.0,139.11,3.5799999237060547,12041169408.0,1853.0807685101581,250.0,0.01786019280552864,1028096.0,2239.861330509186,1.7175497135646367e-14,0.0,2.1510024070739746,-0.02151002362370491,0.1921960413455963,-0.02151002362370491,9.313225746154785e-10,0.0,0.06815643608570099,0.616311252117157,0.841989758269126,2.2727503776550293,1.3477243185043335,2.3409066200256348,1.5504486560821533,2.2103731632232666,0.9975748062133789,,,,,,,
4605120000.0,143.06,3.5899999141693115,12041169408.0,1828.9155868122473,251.0,0.014076847583055496,1032192.0,2242.1009089946747,1.6806001035263307e-14,0.0,2.180689811706543,-0.021806897595524788,0.2075129598379135,-0.021806897595524788,0.0,0.0,-0.047517210245132446,0.642548680305481,0.8396620660401686,1.9499512910842896,1.4795074462890625,1.9024341106414795,1.6046780347824097,2.2395784854888916,0.9975202083587646,,,,,,,
4605120000.0,154.98,4.460000038146973,12041169408.0,1844.7216971311138,252.0,0.018895413726568222,1036288.0,2244.321298122406,1.7600504387260685e-14,0.0,2.1725196838378906,-0.021725185215473175,0.21845468878746033,-0.02172519639134407,1.210719347000122e-08,0.0,0.05874941498041153,0.6584555506706238,0.8706175759648179,2.3922104835510254,1.5920863151550293,2.4509599208831787,1.830580711364746,2.2203891277313232,0.9974968433380127,,,,,,,
4605120000.0,161.25,5.070000171661377,12041169408.0,1850.8980569731875,253.0,0.019690338522195816,1040384.0,2246.5342779159546,1.7767037840954458e-14,0.0,2.1928653717041016,-0.02192864939570427,0.2507593035697937,-0.021928653120994568,3.725290298461914e-09,0.0,-0.0006295125931501389,0.708266019821167,0.8762879520701968,2.1405861377716064,1.8200477361679077,2.139956474304199,2.0136795043945312,2.212979793548584,0.9974184036254883,,,,,,,
4605120000.0,147.25,4.139999866485596,12041169408.0,1783.5357821736006,254.0,0.018166854977607727,1044480.0,2248.8308396339417,1.8112247812673843e-14,0.0,2.1708908081054688,-0.021708905696868896,0.20805692672729492,-0.021708907559514046,1.862645149230957e-09,0.0,0.021779285743832588,0.6447798013687134,0.9056524655743318,2.4162538051605225,1.926994800567627,2.438033103942871,2.099163055419922,2.2965617179870605,0.9974949359893799,,,,,,,
4605120000.0,136.96,4.300000190734863,12041169408.0,1851.6605128125536,255.0,0.016038965433835983,1048576.0,2251.042908191681,1.7612647451592522e-14,0.0,2.194798469543457,-0.021947983652353287,0.2424401044845581,-0.021947983652353287,0.0,0.0,-0.0968581959605217,0.6896483898162842,0.8789274297707436,2.292994976043701,1.8756142854690552,2.196136474609375,1.98200523853302,2.212068557739258,0.997631311416626,,,,,,,
,,,,,,,,,,,,,,,,,,,,,,,,,,0.047990985214710236,0.2915804386138916,0.2683899402618408,0.047990985214710236,0.2915804386138916,0.2683899402618408,
,,,,,,,,,,,,,,,,,,,,,,,,,,0.021952319890260696,0.2081371694803238,0.19780133664608002,0.021952319890260696,0.2081371694803238,0.19780133664608002,
,,,,,,,,,,,,,,,,,,,,,,,,,,0.015292062424123287,0.17398269474506378,0.1655665934085846,0.015292062424123287,0.17398269474506378,0.1655665934085846,
,,,,,,,,,,,,,,,,,,,,,,,,,,0.013461777940392494,0.15916399657726288,0.1492268294095993,0.013461777940392494,0.15916399657726288,0.1492268294095993,
,,,,,,,,,,,,,,,,,,,,,,,,,,0.013181038200855255,0.15358278155326843,0.14809389412403107,0.013181038200855255,0.15358278155326843,0.14809389412403107,
