CpuMaxMemory,EpLenMean,EpRewMean,GpuMaxMemory,IPS_total,Iter,Misc/FrameRewMean,Misc/InteractCount,Misc/TimeElapsed,Opt/approxkl,Opt/clipfrac,Opt/entropy,Opt/loss_pi,Opt/loss_vf,Opt/negent,Opt/pg,Opt/pi_kl,VFStats/AdvMean,VFStats/AdvStd,VFStats/EV,VFStats/VpredMean,VFStats/VpredStd,VFStats/VtargMean,VFStats/VtargStd,del_time,wait_optimization,scaled/pol_distance,scaled/vf_aux,scaled/vf_true,unscaled/pol_distance,unscaled/vf_aux,unscaled/vf_true,EvalEpMean
3679892000.0,78.68888888888888,-2.5333333015441895,11965495808.0,2149.857628286035,0.0,-0.01268046349287033,4096.0,1.9052424430847168,4.6351811278100286e-15,0.0,2.707352638244629,-0.02707352489233017,0.15009506046772003,-0.02707352489233017,9.313225746154785e-10,0.0,-0.14214809238910675,0.5291997790336609,0.0039681556961918,-0.05852601304650307,0.028852295130491257,-0.2006741166114807,0.5302528738975525,1.9052424430847168,0.5346753597259521,,,,,,,
3731536000.0,82.60919540229885,-2.528735637664795,12031147008.0,2175.942528335281,1.0,-0.014065595343708992,8192.0,3.787645101547241,5.412337245047638e-15,0.0,2.7054197788238525,-0.027054181322455406,0.17873471975326538,-0.02705419808626175,1.6763806343078613e-08,0.0,-0.13845735788345337,0.5817058086395264,0.040834695069569826,-0.403370201587677,0.10172056406736374,-0.5418275594711304,0.5939592123031616,1.8824026584625244,0.49444007873535156,,,,,,,
3780900000.0,84.37,-2.2699999809265137,12031147008.0,2117.0596484249413,2.0,-0.010889858938753605,12288.0,5.7224040031433105,4.669875597329565e-15,0.0,2.7058870792388916,-0.027058884501457214,0.17556510865688324,-0.02705886960029602,-1.4901161193847656e-08,0.0,0.06519223749637604,0.589037299156189,0.07245240254444363,-0.8975093364715576,0.21124619245529175,-0.8323171138763428,0.6116101145744324,1.9347589015960693,0.490527868270874,,,,,,,
3830004000.0,80.95,-2.7300000190734863,12031147008.0,2224.0930905264563,3.0,-0.01489187590777874,16384.0,7.564053535461426,4.073130721593543e-15,0.0,2.7059056758880615,-0.027059055864810944,0.18848219513893127,-0.027059055864810944,0.0,0.0,-0.01247681025415659,0.6139224171638489,0.1492495130445114,-0.930656909942627,0.20860937237739563,-0.9431337714195251,0.6655986309051514,1.8416495323181152,0.4899139404296875,,,,,,,
3879372000.0,79.5,-2.380000114440918,12031147008.0,2171.2855516276363,4.0,-0.009471571072936058,20480.0,9.450493574142456,3.760880495917718e-15,0.0,2.705894947052002,-0.027058925479650497,0.1761971116065979,-0.027058949694037437,2.421438694000244e-08,0.0,0.17891797423362732,0.5660926103591919,0.0780922377448433,-1.1103253364562988,0.27915695309638977,-0.9314073324203491,0.5895813703536987,1.8864400386810303,0.4899735450744629,,,,,,,
3928476000.0,78.51,-1.8899999856948853,12031147008.0,2229.0747496975223,5.0,-0.010760070756077766,24576.0,11.288027286529541,3.823330541052883e-15,0.0,2.7052314281463623,-0.027052318677306175,0.17602652311325073,-0.027052313089370728,-6.05359673500061e-09,0.0,0.05897451564669609,0.590474545955658,0.11158692453374719,-0.8165055513381958,0.20348738133907318,-0.7575310468673706,0.6264604926109314,1.837533712387085,0.490323543548584,,,,,,,
3977844000.0,76.32,-2.119999885559082,12031147008.0,2268.1162456713373,6.0,-0.012390892952680588,28672.0,13.093931198120117,4.739264536368637e-15,0.0,2.7041115760803223,-0.027041107416152954,0.15563976764678955,-0.02704111486673355,7.450580596923828e-09,0.0,0.0055471379309892654,0.5579648613929749,0.05972388472404422,-0.6108750700950623,0.16058622300624847,-0.6053279638290405,0.5754122734069824,1.8059039115905762,0.49038052558898926,,,,,,,
4026948000.0,80.1,-2.130000114440918,12031147008.0,2170.4546548394937,7.0,-0.00920848734676838,32768.0,14.981093406677246,4.364564265557647e-15,0.0,2.7033116817474365,-0.027033109217882156,0.11731737107038498,-0.027033116668462753,7.450580596923828e-09,0.0,-0.02313508279621601,0.4838973879814148,0.06140500309906671,-0.4737236499786377,0.1320311278104782,-0.49685871601104736,0.4994754493236542,1.887162208557129,0.4899933338165283,,,,,,,
4076052000.0,85.18,-2.390000104904175,12031147008.0,2230.126852606315,8.0,-0.016631437465548515,36864.0,16.817760229110718,3.8441472227646045e-15,0.0,2.703629493713379,-0.027036290615797043,0.17799358069896698,-0.02703629434108734,2.7939677238464355e-09,0.0,-0.14550480246543884,0.5787031054496765,0.06080312965190682,-0.38972383737564087,0.10776522010564804,-0.5352286100387573,0.5971418023109436,1.8366668224334717,0.48978471755981445,,,,,,,
4125420000.0,88.52,-3.009999990463257,12031147008.0,2223.176125546481,9.0,-0.01658443920314312,40960.0,18.66016936302185,4.135580766728708e-15,0.0,2.7036635875701904,-0.02703663520514965,0.17369799315929413,-0.02703663520514965,0.0,0.0,-0.11683958023786545,0.5777767896652222,0.0509481549844184,-0.36980196833610535,0.11031008511781693,-0.4866415560245514,0.5930825471878052,1.8424091339111328,0.4898641109466553,,,,,,,
4174524000.0,87.37,-2.630000114440918,12031147008.0,2250.6471228309847,10.0,-0.008530739694833755,45056.0,20.480090379714966,3.4416913763379853e-15,0.0,2.703958034515381,-0.027039578184485435,0.12932218611240387,-0.027039580047130585,1.862645149230957e-09,0.0,-0.035746730864048004,0.5073750019073486,0.06807667092767822,-0.39721065759658813,0.12293846160173416,-0.43295738101005554,0.5255801677703857,1.8199210166931152,0.49008822441101074,,,,,,,
4223628000.0,84.42,-2.4100000858306885,12031147008.0,2221.871057813965,11.0,-0.014527547173202038,49152.0,22.32358169555664,3.282096816548119e-15,0.0,2.704944133758545,-0.027049440890550613,0.20351222157478333,-0.027049440890550613,0.0,0.0,-0.12332803010940552,0.6260274648666382,0.10797738635638365,-0.398738294839859,0.13229890167713165,-0.5220663547515869,0.6628350019454956,1.8434913158416748,0.49028897285461426,,,,,,,
4272996000.0,85.07,-2.4600000381469727,12031147008.0,2249.496927737307,12.0,-0.012394068762660027,53248.0,24.14443325996399,2.67841304690819e-15,0.0,2.7057149410247803,-0.027057141065597534,0.1535840928554535,-0.02705714851617813,6.51925802230835e-09,0.0,-0.0591377317905426,0.5511307120323181,0.04065581436896193,-0.43301859498023987,0.1391599327325821,-0.49215632677078247,0.5626877546310425,1.8208515644073486,0.48986268043518066,,,,,,,
4322100000.0,86.62,-2.890000104904175,12031147008.0,2199.620989358132,13.0,-0.015240741893649101,57344.0,26.006572246551514,2.8449465006019636e-15,0.0,2.7060680389404297,-0.02706069126725197,0.16975291073322296,-0.027060680091381073,-1.0244548320770264e-08,0.0,-0.08072233200073242,0.5771231055259705,0.03998998460813097,-0.5833640098571777,0.22457429766654968,-0.6640862822532654,0.5890206694602966,1.8621389865875244,0.48990464210510254,,,,,,,
4371468000.0,84.71,-2.619999885559082,12031147008.0,2252.1500703703937,14.0,-0.009146901778876781,61440.0,27.825278759002686,2.2967738821932926e-15,0.0,2.706576347351074,-0.027065778151154518,0.14090798795223236,-0.027065763249993324,-1.4901161193847656e-08,0.0,0.06571008265018463,0.5268452763557434,0.07736536527057958,-0.7711083889007568,0.24325361847877502,-0.7053983211517334,0.5484894514083862,1.8187065124511719,0.48998522758483887,,,,,,,
4420572000.0,82.65,-2.7200000286102295,12031147008.0,2219.8364420324965,15.0,-0.01663084514439106,65536.0,29.670459747314453,1.887379141862766e-15,0.0,2.7069125175476074,-0.027069127187132835,0.19261084496974945,-0.027069125324487686,-1.862645149230957e-09,0.0,-0.053248029202222824,0.6184494495391846,0.11199651359516549,-0.8288536667823792,0.27089923620224,-0.8821017146110535,0.656291663646698,1.8451809883117676,0.4897644519805908,,,,,,,
4469676000.0,81.92,-2.619999885559082,12031147008.0,2282.3369533492355,16.0,-0.008533697575330734,69632.0,31.46511149406433,1.6792123247455493e-15,0.0,2.7070891857147217,-0.027070896700024605,0.15996813774108887,-0.027070891112089157,-5.587935447692871e-09,0.0,0.07757632434368134,0.5603523850440979,0.13601618262467752,-0.9977295994758606,0.3212525248527527,-0.9201532602310181,0.6028488278388977,1.794651746749878,0.48977136611938477,,,,,,,
4519044000.0,88.01,-2.0199999809265137,12031147008.0,2268.5684912188035,17.0,-0.01006230153143406,73728.0,33.270655393600464,1.9220736113823023e-15,0.0,2.7072205543518066,-0.027072196826338768,0.12631918489933014,-0.027072204276919365,7.450580596923828e-09,0.0,0.0740041732788086,0.49721434712409973,0.2750055042086358,-0.8861057162284851,0.2576557695865631,-0.8121015429496765,0.5839508175849915,1.8055438995361328,0.48984217643737793,,,,,,,
4568148000.0,89.61,-1.940000057220459,12031147008.0,2211.466914503884,18.0,-0.00854746624827385,77824.0,35.122819662094116,1.8665624601510444e-15,0.0,2.7069435119628906,-0.027069438248872757,0.15745291113853455,-0.02706943452358246,-3.259629011154175e-09,0.0,0.04185963422060013,0.559669554233551,0.10672158114854935,-0.7796571254730225,0.22282171249389648,-0.7377974987030029,0.5921589732170105,1.8521642684936523,0.49012231826782227,,,,,,,
4617252000.0,84.27,-1.7400000095367432,12031147008.0,2168.6077853612305,19.0,-0.009332220070064068,81920.0,37.01158905029297,1.949829186997931e-15,0.0,2.7065794467926025,-0.027065783739089966,0.14289440214633942,-0.027065793052315712,9.313225746154785e-09,0.0,0.0233151838183403,0.5341486930847168,0.10151965878934277,-0.7294157147407532,0.21213848888874054,-0.706100583076477,0.5635181069374084,1.8887693881988525,0.4897727966308594,,,,,,,
4666620000.0,83.2,-2.450000047683716,12031147008.0,2216.451586742422,20.0,-0.016913380473852158,86016.0,38.85958790779114,2.3522850334245504e-15,0.0,2.7058122158050537,-0.027058131992816925,0.2206621766090393,-0.02705812081694603,-1.0244548320770264e-08,0.0,-0.12446184456348419,0.6526389718055725,0.040011393968538256,-0.584130585193634,0.13804322481155396,-0.708592414855957,0.666100800037384,1.847998857498169,0.4902677536010742,,,,,,,
4715724000.0,86.77,-3.319999933242798,12031147008.0,2206.373692427881,21.0,-0.01511681079864502,90112.0,40.71602773666382,2.9559688030644793e-15,0.0,2.7043418884277344,-0.027043417096138,0.14601805806159973,-0.02704341895878315,1.862645149230957e-09,0.0,-0.05842915177345276,0.537301242351532,0.1187216051425497,-0.5495807528495789,0.13235723972320557,-0.6080098152160645,0.572349488735199,1.8564398288726807,0.48999953269958496,,,,,,,
4765092000.0,88.78,-3.1600000858306885,12031147008.0,2138.8693516860844,22.0,-0.012372476980090141,94208.0,42.63105821609497,3.552713678800501e-15,0.0,2.7033867835998535,-0.027033869177103043,0.17703105509281158,-0.027033867314457893,-2.3283064365386963e-09,0.0,-0.04487982764840126,0.5934087038040161,0.07002019610065224,-0.5286778807640076,0.13930626213550568,-0.5735577344894409,0.615342915058136,1.9150304794311523,0.4899003505706787,,,,,,,
4814196000.0,85.35,-2.5,12031147008.0,2146.6070273552036,23.0,-0.012050192803144455,98304.0,44.539185762405396,4.274358644806853e-15,0.0,2.7002029418945312,-0.027002036571502686,0.17658479511737823,-0.02700202912092209,-7.450580596923828e-09,0.0,-0.03895270824432373,0.593075156211853,0.0785846350494922,-0.5650205016136169,0.1379845291376114,-0.6039732098579407,0.6178485155105591,1.9081275463104248,0.4898717403411865,,,,,,,
4863300000.0,86.7,-2.0199999809265137,12031147008.0,2257.5890899008255,24.0,-0.008659301325678825,102400.0,46.35351061820984,6.196432256189155e-15,0.0,2.692291736602783,-0.0269229207187891,0.1272285133600235,-0.026922916993498802,-3.725290298461914e-09,0.0,0.033933524042367935,0.5033561587333679,0.02522664912706596,-0.6196600794792175,0.13898929953575134,-0.5857265591621399,0.5098278522491455,1.8143248558044434,0.4899313449859619,,,,,,,
4913192000.0,83.74,-1.5700000524520874,12031147008.0,2056.7890218828215,25.0,-0.00891085248440504,106496.0,48.344964265823364,8.139322549283179e-15,0.0,2.6791751384735107,-0.026791760697960854,0.10761383175849915,-0.026791751384735107,-9.313225746154785e-09,0.0,0.05570843815803528,0.46062567830085754,0.08336192784539886,-0.6169252395629883,0.1274891048669815,-0.5612168312072754,0.48111534118652344,1.9914536476135254,0.4897806644439697,,,,,,,
4962380000.0,83.97,-2.299999952316284,12031147008.0,2079.1895484953475,26.0,-0.011933231726288795,110592.0,50.31496262550354,8.770761894538737e-15,0.0,2.6730504035949707,-0.026730502024292946,0.14300023019313812,-0.026730503886938095,1.862645149230957e-09,0.0,-0.04237596318125725,0.5331736207008362,0.07725461317644455,-0.6059778332710266,0.13695618510246277,-0.6483538150787354,0.555044412612915,1.9699983596801758,0.4900939464569092,,,,,,,
5012012000.0,83.96,-2.549999952316284,12031147008.0,2280.9024720896,27.0,-0.013620276935398579,114688.0,52.110743045806885,1.0387524174149121e-14,0.0,2.648664951324463,-0.026486659422516823,0.19425812363624573,-0.026486648246645927,-1.1175870895385742e-08,0.0,-0.038932785391807556,0.622169554233551,0.024356341505314183,-0.6304981708526611,0.12815143167972565,-0.6694309115409851,0.6298877000808716,1.7957804203033447,0.4902663230895996,,,,,,,
5061772000.0,79.51,-1.690000057220459,12031147008.0,2127.5000401231237,28.0,-0.0073769716545939445,118784.0,54.03600740432739,1.2552459072168176e-14,0.0,2.622708559036255,-0.026227068156003952,0.11734659969806671,-0.026227084919810295,1.6763806343078613e-08,0.0,0.061009496450424194,0.48065313696861267,0.09437566470282521,-0.6496710777282715,0.12509889900684357,-0.5886615514755249,0.5050771832466125,1.9252643585205078,0.49001264572143555,,,,,,,
5111140000.0,77.7,-1.8200000524520874,12031147008.0,2176.555905226105,29.0,-0.010281236842274666,122880.0,55.917879581451416,1.3190837311327641e-14,0.0,2.5965192317962646,-0.02596518024802208,0.13200704753398895,-0.025965191423892975,1.1175870895385742e-08,0.0,0.05615388602018356,0.5108076930046082,0.10608495876428436,-0.666720986366272,0.11596482992172241,-0.6105671525001526,0.5402681231498718,1.8818721771240234,0.49039697647094727,,,,,,,
5160244000.0,77.4,-2.25,12031147008.0,2209.360091399788,30.0,-0.013604211620986462,126976.0,57.77181005477905,1.2323475573339238e-14,0.0,2.562486410140991,-0.025624854490160942,0.13871407508850098,-0.025624863803386688,9.313225746154785e-09,0.0,-0.021468419581651688,0.5263410806655884,0.0030523232907662123,-0.6355404853820801,0.12012428045272827,-0.657008945941925,0.5271461606025696,1.8539304733276367,0.49015378952026367,,,,,,,
5209612000.0,79.2,-1.8600000143051147,12031147008.0,2269.3868849310375,31.0,-0.008214623667299747,131072.0,59.57670283317566,1.354992507085484e-14,0.0,2.4450979232788086,-0.024450968950986862,0.12435650080442429,-0.02445097826421261,8.381903171539307e-09,0.0,0.03411111235618591,0.497604101896286,0.009647408406663893,-0.6309712529182434,0.1313544362783432,-0.5968601107597351,0.5000219345092773,1.8048927783966064,0.4903409481048584,,,,,,,
,,,,,,,,,,,,,,,,,,,,,,,,,,0.006478355266153812,0.17348042130470276,0.16034413874149323,0.006478355266153812,0.17348042130470276,0.16034413874149323,
,,,,,,,,,,,,,,,,,,,,,,,,,,0.003003894817084074,0.16151154041290283,0.1449165642261505,0.003003894817084074,0.16151154041290283,0.1449165642261505,
,,,,,,,,,,,,,,,,,,,,,,,,,,0.0025681762490421534,0.15149758756160736,0.13556288182735443,0.0025681762490421534,0.15149758756160736,0.13556288182735443,
,,,,,,,,,,,,,,,,,,,,,,,,,,0.001230285270139575,0.1397177129983902,0.1250917911529541,0.001230285270139575,0.1397177129983902,0.1250917911529541,
,,,,,,,,,,,,,,,,,,,,,,,,,,0.002182185649871826,0.13208992779254913,0.12126445770263672,0.002182185649871826,0.13208992779254913,0.12126445770263672,
,,,,,,,,,,,,,,,,,,,,,,,,,,0.000943975814152509,0.12223167717456818,0.1082129254937172,0.000943975814152509,0.12223167717456818,0.1082129254937172,
,,,,,,,,,,,,,,,,,,,,,,,,,,,,,,,,-1.29
5227800000.0,77.62,-1.0700000524520874,11990518784.0,30.635437876084627,32.0,-0.00461955089122057,135168.0,193.27807235717773,1.0864573130042743e-14,0.0,2.2331385612487793,-0.022331422194838524,0.08800740540027618,-0.02233138494193554,-3.725290298461914e-08,0.0,0.17039945721626282,0.3834249973297119,0.4371285802350744,-0.7446416616439819,0.354743093252182,-0.574242115020752,0.5110647082328796,133.70136952400208,0.5139560699462891,,,,,,,
5227800000.0,76.41,-1.4199999570846558,12041169408.0,2145.9771720252384,33.0,-0.010447466745972633,139264.0,195.18675994873047,1.1967857260763992e-14,0.0,2.192941904067993,-0.021929416805505753,0.12485755980014801,-0.021929418668150902,1.862645149230957e-09,0.0,0.0380646213889122,0.49832403659820557,0.43070909809547264,-0.7132925987243652,0.3415279686450958,-0.67522794008255,0.6604572534561157,1.9086875915527344,0.4902825355529785,,,,,,,
5227800000.0,74.87,-1.2100000381469727,12041169408.0,2178.623254837202,34.0,-0.006390576250851154,143360.0,197.06684637069702,1.3220327610419247e-14,0.0,2.112313985824585,-0.021123142912983894,0.08518896251916885,-0.021123139187693596,-3.725290298461914e-09,0.0,0.09329821169376373,0.40213534235954285,0.4696290154568328,-0.6180157661437988,0.3102560043334961,-0.5247175693511963,0.552182137966156,1.8800864219665527,0.4900181293487549,,,,,,,
5227800000.0,75.94,-1.090000033378601,12041169408.0,2282.1504960859093,35.0,-0.006436129100620747,147456.0,198.86164474487305,1.4498818812214154e-14,0.0,2.0657520294189453,-0.020657511427998543,0.06661109626293182,-0.02065752074122429,9.313225746154785e-09,0.0,0.06266653537750244,0.35962018370628357,0.4968343089746877,-0.5505801439285278,0.2871829569339752,-0.4879136085510254,0.5069773197174072,1.7947983741760254,0.49005985260009766,,,,,,,
5227800000.0,79.19,-1.2400000095367432,12041169408.0,2223.011577863708,36.0,-0.006260273978114128,151552.0,200.70419025421143,1.4894335764736866e-14,0.0,2.007953643798828,-0.02007952332496643,0.05903355032205582,-0.020079536363482475,1.30385160446167e-08,0.0,0.04848324880003929,0.34021279215812683,0.4304315319281421,-0.46017757058143616,0.23659706115722656,-0.4116942882537842,0.45079347491264343,1.842545509338379,0.4900369644165039,,,,,,,
5227800000.0,79.3,-1.0800000429153442,12041169408.0,2210.025149711691,37.0,-0.006401116028428078,155648.0,202.55756282806396,1.650068970349139e-14,0.0,1.9796276092529297,-0.01979626901447773,0.06501742452383041,-0.019796276465058327,7.450580596923828e-09,0.0,0.05977175384759903,0.355658620595932,0.4626335317880568,-0.4179125726222992,0.26239457726478577,-0.35814082622528076,0.48517459630966187,1.853372573852539,0.4899730682373047,,,,,,,
5227800000.0,74.57,-0.7699999809265137,12041169408.0,2088.3869949146538,38.0,-0.003996709361672401,159744.0,204.51888513565063,1.4948112192492147e-14,0.0,2.0114126205444336,-0.020114125683903694,0.057066746056079865,-0.020114125683903694,0.0,0.0,0.060383379459381104,0.3324369490146637,0.3758957054348706,-0.3766753077507019,0.2398519366979599,-0.3162919282913208,0.42080479860305786,1.96132230758667,0.49007081985473633,,,,,,,
5227800000.0,73.43,-0.9100000262260437,12041169408.0,2248.264051332002,39.0,-0.005797453224658966,163840.0,206.34073519706726,1.346839306748393e-14,0.0,2.0856761932373047,-0.020856766030192375,0.0647258460521698,-0.020856762304902077,-3.725290298461914e-09,0.0,0.0393538698554039,0.35767892003059387,0.3711711732455183,-0.30722182989120483,0.21750487387180328,-0.26786795258522034,0.4510525166988373,1.821850061416626,0.49015283584594727,,,,,,,
5227800000.0,74.74,-1.1299999952316284,12041169408.0,2266.5506535710583,40.0,-0.008625783957540989,167936.0,208.1478865146637,1.2165615737025348e-14,0.0,2.158785104751587,-0.021587856113910675,0.0785546600818634,-0.021587850525975227,-5.587935447692871e-09,0.0,-0.02710479125380516,0.3954906463623047,0.37413102757121386,-0.2822582721710205,0.2365049421787262,-0.3093630373477936,0.4999130666255951,1.8071513175964355,0.48998045921325684,,,,,,,
5227800000.0,75.84,-1.2000000476837158,12041169408.0,2162.843622697492,41.0,-0.007879982702434063,172032.0,210.04168963432312,1.2673889715486553e-14,0.0,2.2158846855163574,-0.022158846259117126,0.058767929673194885,-0.022158846259117126,0.0,0.0,5.737319588661194e-05,0.3428768813610077,0.4814867728640402,-0.25348013639450073,0.24983888864517212,-0.25342273712158203,0.47616589069366455,1.8938031196594238,0.49004220962524414,,,,,,,
5227800000.0,73.15,-1.2599999904632568,12041169408.0,2252.4237908633495,42.0,-0.008128611370921135,176128.0,211.86017513275146,1.2601031329495527e-14,0.0,2.2441577911376953,-0.022441575303673744,0.10122891515493393,-0.022441577166318893,1.862645149230957e-09,0.0,-0.02809935063123703,0.44912970066070557,0.3801133981394774,-0.22267743945121765,0.27801957726478577,-0.2507767975330353,0.5704474449157715,1.8184854984283447,0.4899880886077881,,,,,,,
5227800000.0,74.59,-1.409999966621399,12041169408.0,2172.6640091166587,43.0,-0.00837954506278038,180224.0,213.7454183101654,1.2725931419765857e-14,0.0,2.2313990592956543,-0.022313974797725677,0.06258919835090637,-0.02231398969888687,1.4901161193847656e-08,0.0,-0.024515634402632713,0.352998286485672,0.5515033740691002,-0.2265721559524536,0.31219053268432617,-0.2510877847671509,0.5271000266075134,1.8852431774139404,0.4901258945465088,,,,,,,
5227800000.0,76.04,-1.159999966621399,12041169408.0,2275.9420867686345,44.0,-0.00455077551305294,184320.0,215.54511260986328,1.2873382915223885e-14,0.0,2.1958961486816406,-0.021958954632282257,0.052196040749549866,-0.021958960220217705,4.6566128730773926e-09,0.0,0.020435087382793427,0.3224901258945465,0.5332999710928555,-0.22793377935886383,0.3250012993812561,-0.207498699426651,0.47206032276153564,1.799694299697876,0.4899899959564209,,,,,,,
5227800000.0,76.33,-0.8299999833106995,12041169408.0,2281.318328394423,45.0,-0.005606323014944792,188416.0,217.34056568145752,1.481106903788998e-14,0.0,2.15982723236084,-0.021598275750875473,0.05899740010499954,-0.021598272025585175,-3.725290298461914e-09,0.0,0.004288017749786377,0.3435188829898834,0.6188759135295705,-0.2833681106567383,0.4158911406993866,-0.2790800631046295,0.5564388036727905,1.7954530715942383,0.490154504776001,,,,,,,
5227800000.0,76.91,-0.7300000190734863,12041169408.0,2251.2823999744205,46.0,-0.004708582069724798,192512.0,219.15997314453125,1.550669315175668e-14,0.0,2.1022253036499023,-0.021022260189056396,0.06662246584892273,-0.0210222527384758,-7.450580596923828e-09,0.0,0.05560092628002167,0.36081191897392273,0.5487828824970602,-0.27195149660110474,0.41434815526008606,-0.21635055541992188,0.5371407270431519,1.8194074630737305,0.4900660514831543,,,,,,,
5227800000.0,76.33,-0.8700000047683716,12041169408.0,2274.0510773233555,47.0,-0.007841121405363083,196608.0,220.96116399765015,1.542516114838577e-14,0.0,2.1032891273498535,-0.021032890304923058,0.06548697501420975,-0.021032890304923058,0.0,0.0,-0.017448464408516884,0.3615265190601349,0.5991581341589035,-0.23366741836071014,0.4254641532897949,-0.2511158883571625,0.5710229873657227,1.8011908531188965,0.4903285503387451,,,,,,,
5227800000.0,75.14,-1.2899999618530273,12041169408.0,2232.962861957523,48.0,-0.007885544560849667,200704.0,222.7954981327057,1.5334955527634975e-14,0.0,2.0883870124816895,-0.020883876830339432,0.07309002429246902,-0.020883869379758835,-6.984919309616089e-09,0.0,-0.002854816382750869,0.3823709785938263,0.5067570441019215,-0.2498932033777237,0.45821693539619446,-0.2527480125427246,0.5444456338882446,1.834334135055542,0.490020751953125,,,,,,,
5227800000.0,77.43,-1.3200000524520874,12041169408.0,2148.8567674744163,49.0,-0.0072044748812913895,204800.0,224.70162796974182,1.3950646193805483e-14,0.0,2.1859335899353027,-0.021859334781765938,0.08593347668647766,-0.021859334781765938,0.0,0.0,-0.012651016004383564,0.41442590951919556,0.6079983594599634,-0.25161299109458923,0.48000600934028625,-0.2642640173435211,0.6619161367416382,1.9061298370361328,0.489957332611084,,,,,,,
5227800000.0,77.24,-1.2599999904632568,12041169408.0,2228.081141159742,50.0,-0.008061904460191727,208896.0,226.53998112678528,1.2621848011207248e-14,0.0,2.277708053588867,-0.02277708798646927,0.06443440914154053,-0.022777080535888672,-7.450580596923828e-09,0.0,-0.005669062957167625,0.3589820861816406,0.5620751370221679,-0.22432777285575867,0.4468737542629242,-0.22999683022499084,0.5424665808677673,1.838353157043457,0.49011707305908203,,,,,,,
5227800000.0,75.52,-1.309999942779541,12041169408.0,2257.94336645885,51.0,-0.0074997106567025185,212992.0,228.35402131080627,1.2831749551800442e-14,0.0,2.272902488708496,-0.022729020565748215,0.07617848366498947,-0.022729024291038513,3.725290298461914e-09,0.0,0.013736799359321594,0.39013513922691345,0.5772181312164788,-0.2675308585166931,0.4941787123680115,-0.2537940740585327,0.6000077724456787,1.814040184020996,0.4905247688293457,,,,,,,
5227800000.0,76.19,-1.309999942779541,12041169408.0,2185.5888430819227,52.0,-0.006941455416381359,217088.0,230.22811579704285,1.1919285003436642e-14,0.0,2.3205714225769043,-0.023205721750855446,0.054064564406871796,-0.02320571430027485,-7.450580596923828e-09,0.0,-0.007815578952431679,0.32877716422080994,0.6530075715580677,-0.15709105134010315,0.4199385344982147,-0.16490662097930908,0.5581380724906921,1.8740944862365723,0.49036455154418945,,,,,,,
5227800000.0,77.57,-0.8799999952316284,12041169408.0,2207.042057318012,53.0,-0.004133262205868959,221184.0,232.083993434906,1.1402337407595553e-14,0.0,2.347166061401367,-0.023471659049391747,0.057059939950704575,-0.023471660912036896,1.862645149230957e-09,0.0,0.005464509129524231,0.3378133773803711,0.6211970738611822,-0.11780745536088943,0.4020884335041046,-0.1123429462313652,0.5488709211349487,1.8558776378631592,0.490081787109375,,,,,,,
5227800000.0,76.22,-1.2799999713897705,12041169408.0,2184.400285881432,54.0,-0.011955032125115395,225280.0,233.9591076374054,1.1815201594878033e-14,0.0,2.348459243774414,-0.023484598845243454,0.09910210967063904,-0.023484591394662857,-7.450580596923828e-09,0.0,-0.09873603284358978,0.4341675341129303,0.5111055637640396,-0.12615694105625153,0.40453410148620605,-0.2248929738998413,0.6209402084350586,1.8751142024993896,0.49027061462402344,,,,,,,
5227800000.0,77.43,-1.409999966621399,12041169408.0,2222.9937437388867,55.0,-0.007595011033117771,229376.0,235.80166792869568,1.1471726346634625e-14,0.0,2.401146173477173,-0.024011462926864624,0.06368060410022736,-0.024011461064219475,-2.3283064365386963e-09,0.0,-0.019039537757635117,0.35641226172447205,0.6142217393447013,-0.12301772832870483,0.42944180965423584,-0.14205726981163025,0.5738307237625122,1.8425602912902832,0.490109920501709,,,,,,,
5227800000.0,78.71,-0.9800000190734863,12041169408.0,2131.140993292933,56.0,-0.0049997493624687195,233472.0,237.7236430644989,1.0819470319667346e-14,0.0,2.45813250541687,-0.02458132430911064,0.05929453298449516,-0.02458132430911064,-9.313225746154785e-10,0.0,0.0045846328139305115,0.34437912702560425,0.48738397527556665,-0.14696195721626282,0.36707183718681335,-0.1423773169517517,0.4809952676296234,1.9219751358032227,0.4902176856994629,,,,,,,
5227800000.0,74.49,-1.1200000047683716,12041169408.0,2224.1610439499123,57.0,-0.009193804115056992,237568.0,239.56523633003235,9.428222091933947e-15,0.0,2.4645023345947266,-0.02464502677321434,0.063907191157341,-0.024645023047924042,-3.725290298461914e-09,0.0,-0.0010903961956501007,0.3575533926486969,0.6617703537325965,-0.2356596142053604,0.4770289659500122,-0.23674999177455902,0.6148016452789307,1.8415932655334473,0.4901747703552246,,,,,,,
5227800000.0,78.04,-1.2999999523162842,12041169408.0,2169.42631041671,58.0,-0.006230339873582125,241664.0,241.45329308509827,9.648531973383001e-15,0.0,2.5059752464294434,-0.02505975216627121,0.06415772438049316,-0.02505975216627121,0.0,0.0,0.01915186271071434,0.3577427864074707,0.6499354851769427,-0.22284328937530518,0.48611512780189514,-0.20369142293930054,0.6046399474143982,1.888056755065918,0.4901692867279053,,,,,,,
5227800000.0,79.87,-1.2000000476837158,12041169408.0,2258.94656603978,59.0,-0.008891293779015541,245760.0,243.26652765274048,1.0323339405537979e-14,0.0,2.4926462173461914,-0.024926459416747093,0.06962092965841293,-0.024926461279392242,1.862645149230957e-09,0.0,-0.007521084509789944,0.3731210231781006,0.646291417525805,-0.25309693813323975,0.4940120279788971,-0.26061803102493286,0.6273745894432068,1.813234567642212,0.4900643825531006,,,,,,,
5227800000.0,76.12,-1.309999942779541,12041169408.0,2189.442674780156,60.0,-0.008185645565390587,249856.0,245.1373233795166,9.981598880770548e-15,0.0,2.5106377601623535,-0.025106389075517654,0.062228910624980927,-0.02510637789964676,-1.1175870895385742e-08,0.0,-0.0006623268127441406,0.3528282642364502,0.6734774747415675,-0.21412092447280884,0.5149646997451782,-0.21478325128555298,0.6174570918083191,1.870795726776123,0.4899728298187256,,,,,,,
5227800000.0,78.05,-0.8999999761581421,12041169408.0,2200.129727193362,61.0,-0.004106269683688879,253952.0,246.99903178215027,1.0472525624471984e-14,0.0,2.4658732414245605,-0.024658720940351486,0.047432493418455124,-0.02465873211622238,1.1175870895385742e-08,0.0,0.035682760179042816,0.30596500635147095,0.6926242675917536,-0.2125615030527115,0.48815712332725525,-0.17687873542308807,0.5518702268600464,1.861708402633667,0.4900801181793213,,,,,,,
5227800000.0,78.29,-0.7599999904632568,12041169408.0,2201.715478011064,62.0,-0.0049638268537819386,258048.0,248.85939931869507,1.1634790353376445e-14,0.0,2.4165806770324707,-0.024165797978639603,0.07383933663368225,-0.0241658054292202,7.450580596923828e-09,0.0,-0.008494315668940544,0.38424286246299744,0.4376531174643765,-0.155483216047287,0.3721989393234253,-0.16397753357887268,0.512393593788147,1.8603675365447998,0.4903109073638916,,,,,,,
5274348000.0,79.79,-1.1799999475479126,12041169408.0,2210.351572603783,63.0,-0.010554620996117592,262144.0,250.7124981880188,1.186550857568136e-14,0.0,2.332396984100342,-0.023323969915509224,0.08878940343856812,-0.023323969915509224,0.0,0.0,-0.05543259531259537,0.4177902042865753,0.5997519927964173,-0.23614875972270966,0.4945724308490753,-0.2915813624858856,0.6603795886039734,1.8530988693237305,0.49041128158569336,,,,,,,
,,,,,,,,,,,,,,,,,,,,,,,,,,0.01797536015510559,0.11614268273115158,0.07021485269069672,0.01797536015510559,0.11614268273115158,0.07021485269069672,
,,,,,,,,,,,,,,,,,,,,,,,,,,0.005705731920897961,0.07796847075223923,0.055870138108730316,0.005705731920897961,0.07796847075223923,0.055870138108730316,
,,,,,,,,,,,,,,,,,,,,,,,,,,0.004678013268858194,0.06437037885189056,0.04821142926812172,0.004678013268858194,0.06437037885189056,0.04821142926812172,
,,,,,,,,,,,,,,,,,,,,,,,,,,0.00423850491642952,0.05824905261397362,0.045826297253370285,0.00423850491642952,0.05824905261397362,0.045826297253370285,
,,,,,,,,,,,,,,,,,,,,,,,,,,0.004270488861948252,0.05294469743967056,0.04370611533522606,0.004270488861948252,0.05294469743967056,0.04370611533522606,
,,,,,,,,,,,,,,,,,,,,,,,,,,0.0035075154155492783,0.047819823026657104,0.03997320309281349,0.0035075154155492783,0.047819823026657104,0.03997320309281349,
,,,,,,,,,,,,,,,,,,,,,,,,,,,,,,,,-1.0
5276524000.0,82.06,-1.4500000476837158,11990521856.0,30.507199196246024,64.0,-0.006568647921085358,266240.0,384.97588872909546,1.1294784552084991e-14,0.0,2.2600717544555664,-0.022600717842578888,0.04503576084971428,-0.022600717842578888,0.0,0.0,0.007929559797048569,0.3000510334968567,0.7412480143068663,-0.2093713879585266,0.4391533136367798,-0.20144182443618774,0.5898659229278564,134.26339054107666,0.5111942291259766,,,,,,,
5276524000.0,78.64,-0.8700000047683716,12041169408.0,2271.8900767105956,65.0,-0.005006385501474142,270336.0,386.7787928581238,1.1745812655838961e-14,0.0,2.227316379547119,-0.02227315679192543,0.044205278158187866,-0.022273162379860878,6.05359673500061e-09,0.0,-0.004053084645420313,0.2973477840423584,0.5970778632889644,-0.1770479828119278,0.3176083564758301,-0.18110105395317078,0.4684402048587799,1.8029041290283203,0.48997974395751953,,,,,,,
5276524000.0,76.86,-0.8199999928474426,12041169408.0,2161.7169327142237,66.0,-0.005755179561674595,274432.0,388.6735830307007,1.1499481922250254e-14,0.0,2.231489658355713,-0.022314900532364845,0.04008251428604126,-0.022314896807074547,-3.725290298461914e-09,0.0,0.01763671636581421,0.2826189398765564,0.7653666795632051,-0.25152260065078735,0.43621253967285156,-0.23388589918613434,0.5834537744522095,1.8947901725769043,0.4902200698852539,,,,,,,
5276524000.0,75.79,-1.0700000524520874,12041169408.0,2211.91792305763,67.0,-0.007485163398087025,278528.0,390.52536964416504,1.1875916916537221e-14,0.0,2.180060386657715,-0.02180059626698494,0.044082559645175934,-0.021800603717565536,7.450580596923828e-09,0.0,0.0073799449019134045,0.296870619058609,0.8040386894978713,-0.3050526976585388,0.5167804956436157,-0.29767274856567383,0.6706286072731018,1.8517866134643555,0.490081787109375,,,,,,,
5276524000.0,73.81,-1.0199999809265137,12041169408.0,2188.772655370917,68.0,-0.009102502837777138,282624.0,392.39673805236816,1.214826850226558e-14,0.0,2.132941722869873,-0.021329423412680626,0.05071857571601868,-0.02132941596210003,-7.450580596923828e-09,0.0,0.01327994279563427,0.31825384497642517,0.8085698452997799,-0.34975647926330566,0.6062395572662354,-0.33647656440734863,0.7273920178413391,1.871368408203125,0.4904465675354004,,,,,,,
5276524000.0,72.86,-1.5399999618530273,12041169408.0,2193.80585870659,69.0,-0.01157098077237606,286720.0,394.2638130187988,1.3003487175922146e-14,0.0,2.120948314666748,-0.0212094783782959,0.062053121626377106,-0.021209482103586197,3.725290298461914e-09,0.0,0.02798839658498764,0.35121649503707886,0.81925835791181,-0.4528140425682068,0.7014323472976685,-0.42482566833496094,0.8261249661445618,1.867074966430664,0.4901549816131592,,,,,,,
5276524000.0,75.53,-1.3600000143051147,12041169408.0,2199.2341005236854,70.0,-0.007027427665889263,290816.0,396.12627959251404,1.2753686995381486e-14,0.0,2.1253037452697754,-0.02125304751098156,0.04975246638059616,-0.021253036335110664,-1.1175870895385742e-08,0.0,0.053402677178382874,0.31092873215675354,0.8239959608467479,-0.4030776023864746,0.6597650647163391,-0.34967491030693054,0.7411388158798218,1.86246657371521,0.490192174911499,,,,,,,
5276524000.0,77.95,-0.9800000190734863,12041169408.0,2218.600899844516,71.0,-0.004819654859602451,294912.0,397.97248816490173,1.156193196738542e-14,0.0,2.202195167541504,-0.02202196978032589,0.050011005252599716,-0.022021951153874397,-1.862645149230957e-08,0.0,0.04675571620464325,0.3128255307674408,0.7802975697252689,-0.31122684478759766,0.5799484848976135,-0.2644711136817932,0.6673977375030518,1.8462085723876953,0.4903268814086914,,,,,,,
5276524000.0,76.68,-0.7099999785423279,12041169408.0,2228.5693065036453,72.0,-0.004463184624910355,299008.0,399.8104386329651,1.009435590670904e-14,0.0,2.299837827682495,-0.022998396307229996,0.03687997907400131,-0.022998377680778503,-1.955777406692505e-08,0.0,0.05291153863072395,0.2664163112640381,0.8542821171441664,-0.2714729905128479,0.6575589776039124,-0.21856147050857544,0.6979179978370667,1.8379504680633545,0.4903290271759033,,,,,,,
5276524000.0,76.05,-0.8500000238418579,12041169408.0,2287.8818027047814,73.0,-0.006461895536631346,303104.0,401.6007409095764,1.2123982373601905e-14,0.0,2.2366740703582764,-0.022366736084222794,0.03720557317137718,-0.022366739809513092,3.725290298461914e-09,0.0,0.028480306267738342,0.27132636308670044,0.8347174234925838,-0.2536541223526001,0.6113588809967041,-0.22517383098602295,0.6673880815505981,1.7903022766113281,0.4901256561279297,,,,,,,
5276524000.0,76.49,-0.8199999928474426,12041169408.0,2149.1210095691654,74.0,-0.004987952299416065,307200.0,403.5066363811493,1.107794411758789e-14,0.0,2.2695205211639404,-0.02269521914422512,0.03799855709075928,-0.022695204243063927,-1.4901161193847656e-08,0.0,-0.01466498151421547,0.27531901001930237,0.8262324211016667,-0.17493121325969696,0.5971935987472534,-0.18959620594978333,0.6604680418968201,1.905895471572876,0.490084171295166,,,,,,,
5276524000.0,76.15,-0.6600000262260437,12041169408.0,2248.0213445887043,75.0,-0.0036264159716665745,311296.0,405.3286831378937,1.0692835505921039e-14,0.0,2.3563547134399414,-0.023563550785183907,0.04818247631192207,-0.023563547059893608,-3.725290298461914e-09,0.0,0.033999886363744736,0.3085971772670746,0.8656963661514634,-0.24743372201919556,0.7880868315696716,-0.21343383193016052,0.842069685459137,1.8220467567443848,0.4901261329650879,,,,,,,
5276524000.0,75.75,-0.6899999976158142,12041169408.0,2236.732635245238,76.0,-0.0053910911083221436,315392.0,407.159925699234,1.0021497520718015e-14,0.0,2.3290305137634277,-0.023290306329727173,0.035981684923172,-0.023290304467082024,-2.7939677238464355e-09,0.0,0.01551359985023737,0.267843633890152,0.8648705157410332,-0.19580386579036713,0.6785076260566711,-0.18029026687145233,0.7286287546157837,1.831242561340332,0.4900848865509033,,,,,,,
5276524000.0,75.8,-0.8899999856948853,12041169408.0,2262.1271193448365,77.0,-0.006534662563353777,319488.0,408.9706108570099,9.364037323322805e-15,0.0,2.490607976913452,-0.024906063452363014,0.05440881848335266,-0.024906078353524208,1.4901161193847656e-08,0.0,-0.016772039234638214,0.3294887840747833,0.6883341931219942,-0.05997787043452263,0.4955628514289856,-0.07674991339445114,0.5901957154273987,1.810685157775879,0.49007606506347656,,,,,,,
5276524000.0,74.31,-1.0,12041169408.0,2257.8062713872264,78.0,-0.00868141558021307,323584.0,410.78476119041443,7.251144129583054e-15,0.0,2.58455228805542,-0.02584550715982914,0.05656110495328903,-0.025845522060990334,1.4901161193847656e-08,0.0,-0.04732409119606018,0.3330310881137848,0.8628706580532574,-0.1787150651216507,0.8289325833320618,-0.22603915631771088,0.8993310928344727,1.814150333404541,0.4899864196777344,,,,,,,
5276524000.0,76.88,-1.5399999618530273,12041169408.0,2209.7494145662954,79.0,-0.011714339256286621,327680.0,412.6383650302887,6.723788192886104e-15,0.0,2.6516709327697754,-0.026516713201999664,0.1032552421092987,-0.026516709476709366,-3.725290298461914e-09,0.0,-0.12247355282306671,0.43767279386520386,0.6213722983339812,-0.07808225601911545,0.5784915089607239,-0.20055580139160156,0.7112845778465271,1.8536038398742676,0.4902019500732422,,,,,,,
5276524000.0,78.41,-1.9199999570846558,12041169408.0,2220.7896950436975,80.0,-0.01195717602968216,331776.0,414.4827539920807,6.250208683944436e-15,0.0,2.6633381843566895,-0.02663339488208294,0.1695162057876587,-0.026633381843566895,-1.30385160446167e-08,0.0,-0.07600735127925873,0.5773531794548035,0.46775704046250155,-0.21353094279766083,0.6931411027908325,-0.28953826427459717,0.7913826704025269,1.8443889617919922,0.4901292324066162,,,,,,,
5276524000.0,78.95,-2.0999999046325684,12041169408.0,2220.021748625463,81.0,-0.016963597387075424,335872.0,416.32778096199036,5.904998712225051e-15,0.0,2.67008376121521,-0.02670084312558174,0.16984429955482483,-0.026700837537646294,-4.6566128730773926e-09,0.0,-0.13577759265899658,0.566861093044281,0.4337375452805219,-0.13724544644355774,0.44499486684799194,-0.2730230689048767,0.7532997131347656,1.845026969909668,0.4900789260864258,,,,,,,
5276524000.0,82.41,-2.5999999046325684,12041169408.0,2238.4252706847446,82.0,-0.019931036978960037,339968.0,418.15763878822327,5.667341596016229e-15,0.0,2.675901412963867,-0.026759011670947075,0.18984949588775635,-0.026759013533592224,1.6298145055770874e-09,0.0,-0.18903036415576935,0.5865581631660461,0.6347371907961994,-0.34643396735191345,0.771034300327301,-0.535464346408844,0.970528781414032,1.8298578262329102,0.4902522563934326,,,,,,,
5276524000.0,83.06,-2.640000104904175,12041169408.0,2253.1289200872825,83.0,-0.012636546045541763,344064.0,419.9755551815033,6.003877950355729e-15,0.0,2.6726632118225098,-0.026726627722382545,0.15533417463302612,-0.026726631447672844,3.725290298461914e-09,0.0,-0.01913149654865265,0.5571158528327942,0.5376329199068189,-0.31342172622680664,0.709711492061615,-0.3325532078742981,0.8193172812461853,1.8179163932800293,0.4903287887573242,,,,,,,
5276524000.0,82.28,-2.0199999809265137,12041169408.0,2252.9797042751466,84.0,-0.011511597782373428,348160.0,421.79359197616577,6.166941957097549e-15,0.0,2.663604259490967,-0.0266360342502594,0.14093606173992157,-0.026636041700839996,7.450580596923828e-09,0.0,-0.03461185842752457,0.5298515558242798,0.6218564052756492,-0.4302269220352173,0.7366293668746948,-0.46483874320983887,0.8616399765014648,1.8180367946624756,0.4901151657104492,,,,,,,
5276524000.0,86.4,-2.2100000381469727,12041169408.0,2269.322734626047,85.0,-0.013468960300087929,352256.0,423.5985357761383,6.8833827526759706e-15,0.0,2.6529507637023926,-0.02652951143682003,0.1364746391773224,-0.026529507711529732,-3.725290298461914e-09,0.0,0.02201560139656067,0.5220451354980469,0.6901188471067106,-0.5562065839767456,0.7727249264717102,-0.5341908931732178,0.9378005266189575,1.8049437999725342,0.490283727645874,,,,,,,
5276524000.0,87.56,-2.390000104904175,12041169408.0,2262.5439041559084,86.0,-0.014697152189910412,356352.0,425.408887386322,7.145325997548468e-15,0.0,2.6363320350646973,-0.026363320648670197,0.13754788041114807,-0.026363320648670197,0.0,0.0,-0.007881196215748787,0.5245005488395691,0.7628175383604765,-0.7191837430000305,0.8684098124504089,-0.7270649671554565,1.0769726037979126,1.8103516101837158,0.49030089378356934,,,,,,,
5276524000.0,82.04,-2.180000066757202,12041169408.0,2163.3932419009393,87.0,-0.011340669356286526,360448.0,427.3022093772888,6.7758298971654085e-15,0.0,2.6435182094573975,-0.026435203850269318,0.1300594061613083,-0.026435181498527527,-2.2351741790771484e-08,0.0,0.09041574597358704,0.5020012855529785,0.7357525950658426,-0.7423537373542786,0.8052240610122681,-0.6519379615783691,0.9765612483024597,1.8933219909667969,0.49053430557250977,,,,,,,
5276524000.0,77.88,-1.75,12041169408.0,2124.7377986806737,88.0,-0.010476617142558098,364544.0,429.22997665405273,6.6318478486593335e-15,0.0,2.644995927810669,-0.026449957862496376,0.13184979557991028,-0.026449957862496376,0.0,0.0,0.11709507554769516,0.500049352645874,0.7366110228675699,-0.7467023134231567,0.9056089520454407,-0.6296072602272034,0.9743480086326599,1.927767276763916,0.4902212619781494,,,,,,,
5276524000.0,76.54,-1.340000033378601,12041169408.0,2203.0814373074295,89.0,-0.009354540146887302,368640.0,431.08919072151184,6.99787450209044e-15,0.0,2.6501598358154297,-0.026501601561903954,0.1228877454996109,-0.026501597836613655,-3.725290298461914e-09,0.0,0.10941147804260254,0.4835924804210663,0.6692582840949806,-0.6566339731216431,0.7527464628219604,-0.5472224950790405,0.8408820629119873,1.8592140674591064,0.4904472827911377,,,,,,,
5276524000.0,80.09,-1.590000033378601,12041169408.0,2252.140622738666,90.0,-0.010217893868684769,372736.0,432.90790486335754,6.54684639833647e-15,0.0,2.6622281074523926,-0.02662227861583233,0.09811262041330338,-0.026622280478477478,1.862645149230957e-09,0.0,0.03278043121099472,0.44181254506111145,0.6815245421193982,-0.46576714515686035,0.6294732689857483,-0.43298670649528503,0.7828887104988098,1.8187141418457031,0.490159273147583,,,,,,,
5276524000.0,84.57,-2.3399999141693115,12041169408.0,2119.939015380781,91.0,-0.014056717976927757,376832.0,434.84003591537476,6.663072871226916e-15,0.0,2.6617865562438965,-0.02661784738302231,0.14036349952220917,-0.02661786414682865,1.6763806343078613e-08,0.0,-0.08550421893596649,0.5229557752609253,0.6294820580137959,-0.42626938223838806,0.5931537747383118,-0.5117735862731934,0.8591328859329224,1.932131052017212,0.49054789543151855,,,,,,,
5276524000.0,84.76,-2.1700000762939453,12041169408.0,2150.699750639613,92.0,-0.011804240755736828,380928.0,436.74453234672546,7.265021917390868e-15,0.0,2.648174285888672,-0.026481743901968002,0.1155676618218422,-0.026481742039322853,-1.862645149230957e-09,0.0,-0.030666787177324295,0.4798448383808136,0.6889426269599249,-0.43379372358322144,0.6398636698722839,-0.464460551738739,0.8603606820106506,1.904496431350708,0.49022984504699707,,,,,,,
5276524000.0,80.14,-1.850000023841858,12041169408.0,2212.6349610061975,93.0,-0.012312919832766056,385024.0,438.5957188606262,7.311859451242242e-15,0.0,2.616917371749878,-0.026169180870056152,0.09710174053907394,-0.026169173419475555,-7.450580596923828e-09,0.0,0.00045003369450569153,0.44073882699012756,0.7131700801155525,-0.48296335339546204,0.6628894805908203,-0.48251333832740784,0.8229417204856873,1.8511865139007568,0.4902486801147461,,,,,,,
5276524000.0,77.22,-1.690000057220459,12041169408.0,2220.8654853675134,94.0,-0.008966943249106407,389120.0,440.44004487991333,7.25287885305903e-15,0.0,2.607189893722534,-0.026071898639202118,0.0661938339471817,-0.026071898639202118,9.313225746154785e-10,0.0,0.04323557764291763,0.36131736636161804,0.768745960149374,-0.5271300077438354,0.6485505700111389,-0.483894407749176,0.7513532042503357,1.8443260192871094,0.49028706550598145,,,,,,,
5276524000.0,77.11,-1.25,12041169408.0,2241.177180624602,95.0,-0.009217262268066406,393216.0,442.2676558494568,8.11156697366755e-15,0.0,2.563929796218872,-0.025639308616518974,0.10220517963171005,-0.02563929744064808,-1.1175870895385742e-08,0.0,0.05750419199466705,0.44850054383277893,0.7387817655073046,-0.4766407608985901,0.6978564262390137,-0.41913655400276184,0.8775285482406616,1.827610969543457,0.49050426483154297,,,,,,,
,,,,,,,,,,,,,,,,,,,,,,,,,,0.00887133739888668,0.18742138147354126,0.10806126892566681,0.00887133739888668,0.18742138147354126,0.10806126892566681,
,,,,,,,,,,,,,,,,,,,,,,,,,,0.003998975269496441,0.10920099914073944,0.09472279250621796,0.003998975269496441,0.10920099914073944,0.09472279250621796,
,,,,,,,,,,,,,,,,,,,,,,,,,,0.0017831869190558791,0.09060586988925934,0.08037079125642776,0.0017831869190558791,0.09060586988925934,0.08037079125642776,
,,,,,,,,,,,,,,,,,,,,,,,,,,0.0016577356727793813,0.08517317473888397,0.07564305514097214,0.0016577356727793813,0.08517317473888397,0.07564305514097214,
,,,,,,,,,,,,,,,,,,,,,,,,,,0.0015674735186621547,0.0801766887307167,0.07139740884304047,0.0015674735186621547,0.0801766887307167,0.07139740884304047,
,,,,,,,,,,,,,,,,,,,,,,,,,,0.0013780174776911736,0.07310698181390762,0.06636342406272888,0.0013780174776911736,0.07310698181390762,0.06636342406272888,
,,,,,,,,,,,,,,,,,,,,,,,,,,,,,,,,-1.53
5276772000.0,79.32,-1.2599999904632568,11990521856.0,30.550054929256977,96.0,-0.007972149178385735,397312.0,576.3427011966705,8.848824450957693e-15,0.0,2.5299720764160156,-0.02529970556497574,0.07240559160709381,-0.025299720466136932,1.4901161193847656e-08,0.0,0.03475964069366455,0.3789960741996765,0.8156552193166958,-0.3704031705856323,0.7382418513298035,-0.3356435298919678,0.8827124834060669,134.07504534721375,0.5077419281005859,,,,,,,
5276772000.0,79.58,-1.4299999475479126,12041169408.0,2216.679801777254,97.0,-0.008728951215744019,401408.0,578.1905097961426,8.904335602188951e-15,0.0,2.479813575744629,-0.024798139929771423,0.04446015506982803,-0.024798134341835976,-5.587935447692871e-09,0.0,0.026100892573595047,0.2970868647098541,0.8756217526553218,-0.39172837138175964,0.7750030755996704,-0.3656274378299713,0.8423861861228943,1.847808599472046,0.48993802070617676,,,,,,,
5276772000.0,76.4,-1.0399999618530273,12041169408.0,2160.7952269959083,98.0,-0.006371262017637491,405504.0,580.0861082077026,8.564329800897497e-15,0.0,2.468128204345703,-0.02468128502368927,0.03663058578968048,-0.02468128129839897,-3.725290298461914e-09,0.0,0.04019904509186745,0.26769891381263733,0.8477384749789554,-0.27399346232414246,0.634319543838501,-0.2337944507598877,0.6860432624816895,1.8955984115600586,0.4901278018951416,,,,,,,
5276772000.0,75.52,-1.2699999809265137,12041169408.0,2235.9702126934053,99.0,-0.010245325043797493,409600.0,581.9179751873016,8.623310399080708e-15,0.0,2.4875831604003906,-0.02487581968307495,0.06448923796415329,-0.024875830858945847,1.1175870895385742e-08,0.0,0.017091574147343636,0.3587726354598999,0.7995207893648296,-0.36055299639701843,0.6878287196159363,-0.34346139430999756,0.8012805581092834,1.831866979598999,0.4899601936340332,,,,,,,
5276772000.0,76.07,-1.7200000286102295,12041169408.0,2233.5643816834363,100.0,-0.012379337102174759,413696.0,583.7518153190613,9.135053824493866e-15,0.0,2.4170632362365723,-0.02417062036693096,0.06001422554254532,-0.024170631542801857,1.1175870895385742e-08,0.0,0.01584915816783905,0.34613075852394104,0.8299638946001329,-0.4037363529205322,0.7664572596549988,-0.387887179851532,0.8394012451171875,1.8338401317596436,0.4901425838470459,,,,,,,
5276772000.0,75.51,-1.2100000381469727,12041169408.0,2164.041813939357,101.0,-0.004388085566461086,417792.0,585.6445698738098,9.695369507234375e-15,0.0,2.3611550331115723,-0.02361154928803444,0.02475215494632721,-0.02361154928803444,0.0,0.0,0.006987785920500755,0.22241303324699402,0.8743935615496794,-0.22902996838092804,0.5629397034645081,-0.22204218804836273,0.6275585889816284,1.8927545547485352,0.4906933307647705,,,,,,,
5276772000.0,76.24,-0.6899999976158142,12041169408.0,2183.958207010051,102.0,-0.005151769146323204,421888.0,587.5200636386871,1.0817735596191369e-14,0.0,2.2900681495666504,-0.022900676354765892,0.054139040410518646,-0.02290068008005619,3.725290298461914e-09,0.0,0.022005166858434677,0.32835981249809265,0.8271878072035959,-0.28633368015289307,0.7213473320007324,-0.2643285393714905,0.7898830771446228,1.8754937648773193,0.4901576042175293,,,,,,,
5276772000.0,79.07,-1.0399999618530273,12041169408.0,2257.0922812242784,103.0,-0.00930485874414444,425984.0,589.3347878456116,1.119243586700236e-14,0.0,2.202991485595703,-0.02202991582453251,0.04224685579538345,-0.02202991396188736,-1.862645149230957e-09,0.0,0.007296946831047535,0.29062190651893616,0.8959644546031739,-0.3428795039653778,0.8388369679450989,-0.33558255434036255,0.9010262489318848,1.8147242069244385,0.49001193046569824,,,,,,,
5276772000.0,78.38,-1.1699999570846558,12041169408.0,2253.4114500931146,104.0,-0.007682573050260544,430080.0,591.15247631073,1.3005221899398123e-14,0.0,2.0036706924438477,-0.020036712288856506,0.03955301642417908,-0.02003670670092106,-5.587935447692871e-09,0.0,0.01373654417693615,0.28095659613609314,0.8903710498709476,-0.3047473728656769,0.823437511920929,-0.2910108268260956,0.8485483527183533,1.8176884651184082,0.49001526832580566,,,,,,,
5276772000.0,75.23,-1.1299999952316284,12041169408.0,2204.1654147647364,105.0,-0.00719158910214901,434176.0,593.0107760429382,1.5621184901171148e-14,0.0,1.7058929204940796,-0.017058931291103363,0.0707029402256012,-0.017058929428458214,-1.862645149230957e-09,0.0,0.04844888299703598,0.37295112013816833,0.7842421345085884,-0.38133859634399414,0.827022910118103,-0.33288973569869995,0.8029131889343262,1.858299732208252,0.4901151657104492,,,,,,,
5276772000.0,73.47,-0.75,12041169408.0,2233.6817041742993,106.0,-0.0024027577601373196,438272.0,594.8445198535919,1.6627324517237696e-14,0.0,1.4697846174240112,-0.014697864651679993,0.03913655877113342,-0.0146978460252285,-1.862645149230957e-08,0.0,0.05961459130048752,0.2733815610408783,0.7060965203296353,-0.15865574777126312,0.5007739663124084,-0.09904114902019501,0.504274308681488,1.8337438106536865,0.490081787109375,,,,,,,
5276772000.0,74.46,-0.6600000262260437,12041169408.0,2184.04427617768,107.0,-0.008614486083388329,442368.0,596.7199397087097,1.7328152801532326e-14,0.0,1.263798713684082,-0.012637981213629246,0.03359416872262955,-0.012637986801564693,5.587935447692871e-09,0.0,-0.009394864551723003,0.25906842947006226,0.8757609147275469,-0.23102393746376038,0.6750320196151733,-0.24041880667209625,0.7349966764450073,1.8754198551177979,0.4899404048919678,,,,,,,
5276772000.0,75.92,-0.9200000166893005,12041169408.0,2213.3136835617565,108.0,-0.003935860004276037,446464.0,598.5705585479736,1.9519108551691033e-14,0.0,1.2118993997573853,-0.012118997052311897,0.03588288277387619,-0.012118993327021599,-3.725290298461914e-09,0.0,-0.005730786360800266,0.2678627371788025,0.766447940417756,-0.13908705115318298,0.488017201423645,-0.14481784403324127,0.5542687773704529,1.850618839263916,0.4899427890777588,,,,,,,
5276772000.0,75.27,-0.7799999713897705,12041169408.0,2092.7315134145356,109.0,-0.008640296757221222,450560.0,600.5278091430664,1.7789589246142157e-14,0.0,1.166447401046753,-0.011664480902254581,0.043768297880887985,-0.011664473451673985,-7.450580596923828e-09,0.0,0.006259461864829063,0.2958357334136963,0.7805264914372381,-0.17164325714111328,0.5395849943161011,-0.16538380086421967,0.6314800381660461,1.9572505950927734,0.4903743267059326,,,,,,,
5276772000.0,74.66,-1.090000033378601,12041169408.0,2178.6594476992836,110.0,-0.006492492742836475,454656.0,602.4078643321991,1.639140212450485e-14,0.0,1.2914581298828125,-0.012914584949612617,0.02894178032875061,-0.012914581224322319,-3.725290298461914e-09,0.0,-0.0133931003510952,0.24024628102779388,0.7756854655695669,-0.06440569460391998,0.43368542194366455,-0.07779879868030548,0.5072568655014038,1.8800551891326904,0.4900634288787842,,,,,,,
5276772000.0,74.4,-0.9800000190734863,12041169408.0,2319.769445028067,111.0,-0.008033564314246178,458752.0,604.1735570430756,1.7199783264310042e-14,0.0,1.5244455337524414,-0.015244451351463795,0.043750956654548645,-0.015244455076754093,3.725290298461914e-09,0.0,0.002624794840812683,0.29583171010017395,0.7685027561142597,-0.1552659571170807,0.5477144718170166,-0.152641162276268,0.6148536801338196,1.7656927108764648,0.49011754989624023,,,,,,,
5276772000.0,74.59,-0.949999988079071,12041169408.0,2233.034260959466,112.0,-0.004853054415434599,462848.0,606.0078325271606,1.5879658699091692e-14,0.0,1.659510850906372,-0.01659512147307396,0.04600473493337631,-0.016595108434557915,-1.210719347000122e-08,0.0,-0.011217229999601841,0.303160160779953,0.8342580790325518,-0.16305333375930786,0.67353355884552,-0.17427057027816772,0.744656503200531,1.834275484085083,0.4901716709136963,,,,,,,
5276772000.0,78.43,-0.7900000214576721,12041169408.0,2201.6361926115706,113.0,-0.004478773567825556,466944.0,607.8682670593262,1.3969728152041228e-14,0.0,1.8386945724487305,-0.01838693395256996,0.02317238412797451,-0.018386945128440857,1.1175870895385742e-08,0.0,7.943902164697647e-05,0.21530461311340332,0.8576126786122229,-0.10888593643903732,0.5404365658760071,-0.10880649834871292,0.5705814957618713,1.8604345321655273,0.491591215133667,,,,,,,
5276772000.0,77.64,-0.9700000286102295,12041169408.0,2170.1999446455848,114.0,-0.009352095425128937,471040.0,609.7556507587433,1.2788381464901022e-14,0.0,2.026785373687744,-0.020267857238650322,0.03282538801431656,-0.020267853513360023,-3.725290298461914e-09,0.0,-0.06843598186969757,0.24694570899009705,0.8922531043531593,-0.16800662875175476,0.6295576095581055,-0.23644259572029114,0.7523139119148254,1.8873836994171143,0.4900391101837158,,,,,,,
5276772000.0,75.14,-1.0499999523162842,12041169408.0,2163.112405518925,115.0,-0.006155247800052166,475136.0,611.6492185592651,1.3147469224428221e-14,0.0,2.0256576538085938,-0.02025657519698143,0.03703995421528816,-0.02025657519698143,0.0,0.0,-0.009705389849841595,0.2720363438129425,0.8577042993842484,-0.13454264402389526,0.628189206123352,-0.14424803853034973,0.7211591005325317,1.8935678005218506,0.489854097366333,,,,,,,
5276772000.0,75.05,-1.090000033378601,12041169408.0,2209.612425370351,116.0,-0.008341075852513313,479232.0,613.5029373168945,1.1390194343263715e-14,0.0,2.1744747161865234,-0.021744752302765846,0.044680431485176086,-0.0217447467148304,-5.587935447692871e-09,0.0,-0.04737604409456253,0.29519084095954895,0.8445367257624339,-0.12890298664569855,0.6274351477622986,-0.17627903819084167,0.7486675381660461,1.8537187576293945,0.49019622802734375,,,,,,,
5276772000.0,75.92,-1.25,12041169408.0,2057.468131336448,117.0,-0.009378102608025074,483328.0,615.4937336444855,1.0403136685432912e-14,0.0,2.194777011871338,-0.02194777876138687,0.037053339183330536,-0.021947769448161125,-9.313225746154785e-09,0.0,-0.0337815135717392,0.2701542377471924,0.871032450070178,-0.13054513931274414,0.6691252589225769,-0.16432665288448334,0.7522662281990051,1.9907963275909424,0.4901127815246582,,,,,,,
5276772000.0,74.15,-0.8799999952316284,12041169408.0,2223.728055921362,118.0,-0.005403374321758747,487424.0,617.3356854915619,1.1230599783473849e-14,0.0,2.184290885925293,-0.021842913702130318,0.03711484372615814,-0.02184290811419487,-5.587935447692871e-09,0.0,0.01924927346408367,0.2718035876750946,0.6226050767060103,-0.07165324687957764,0.3916802704334259,-0.05240397900342941,0.4424428641796112,1.841951847076416,0.4900527000427246,,,,,,,
5276772000.0,74.31,-0.6200000047683716,12041169408.0,2252.4739949372706,119.0,-0.004639384802430868,491520.0,619.1541304588318,1.041007557933682e-14,0.0,2.2747879028320312,-0.022747881710529327,0.03729719668626785,-0.02274787798523903,-3.725290298461914e-09,0.0,-0.012753112241625786,0.27285516262054443,0.8298350050212466,-0.11998245865106583,0.5697168111801147,-0.13273555040359497,0.6614499688148499,1.8184449672698975,0.4902157783508301,,,,,,,
5276772000.0,78.18,-0.7400000095367432,12041169408.0,2227.681288216436,120.0,-0.004906893707811832,495616.0,620.9928135871887,1.0026701691145945e-14,0.0,2.343571662902832,-0.023435719311237335,0.03637494891881943,-0.023435715585947037,-4.6566128730773926e-09,0.0,-0.01835571601986885,0.2691293954849243,0.8306177585307672,-0.14728006720542908,0.6024066209793091,-0.16563576459884644,0.6539239883422852,1.8386831283569336,0.48982715606689453,,,,,,,
5276772000.0,73.31,-1.0199999809265137,12041169408.0,2258.2526333555656,121.0,-0.008404151536524296,499712.0,622.8066053390503,1.0160275398796159e-14,0.0,2.3431057929992676,-0.02343105338513851,0.04520995169878006,-0.02343105711042881,3.725290298461914e-09,0.0,-0.012610208243131638,0.30047115683555603,0.8258494370538179,-0.2625594735145569,0.6466781497001648,-0.2751696705818176,0.7200130820274353,1.8137917518615723,0.4899604320526123,,,,,,,
5276772000.0,74.36,-1.090000033378601,12041169408.0,2191.2067128473163,122.0,-0.008025911636650562,503808.0,624.6758949756622,9.939965517347105e-15,0.0,2.4120569229125977,-0.024120576679706573,0.040982186794281006,-0.024120569229125977,-7.450580596923828e-09,0.0,-0.014533376321196556,0.28596001863479614,0.8898095584196539,-0.22840936481952667,0.8029389977455139,-0.24294275045394897,0.8614564538002014,1.8692896366119385,0.4901113510131836,,,,,,,
5276772000.0,75.38,-0.8299999833106995,12041169408.0,2190.6127047578607,123.0,-0.001685681170783937,507904.0,626.5456914901733,9.46985545535739e-15,0.0,2.4324049949645996,-0.024324050173163414,0.04401129484176636,-0.024324050173163414,0.0,0.0,0.032546933740377426,0.2949313819408417,0.710804755611437,-0.12478899955749512,0.5057835578918457,-0.0922420546412468,0.5484353303909302,1.8697965145111084,0.49005722999572754,,,,,,,
5276772000.0,78.28,-0.7099999785423279,12041169408.0,2266.9322767958583,124.0,-0.00597357377409935,512000.0,628.3525385856628,9.265158085192127e-15,0.0,2.437326431274414,-0.024373263120651245,0.050511546432971954,-0.024373263120651245,9.313225746154785e-10,0.0,-0.012162160128355026,0.3176472783088684,0.8967234322274206,-0.3477073013782501,0.9191277623176575,-0.35986948013305664,0.9884262681007385,1.806847095489502,0.49016571044921875,,,,,,,
5276772000.0,79.99,-1.2300000190734863,12041169408.0,2253.3730265784616,125.0,-0.012995568104088306,516096.0,630.1702580451965,9.360567876370851e-15,0.0,2.4579005241394043,-0.024579007178544998,0.053438879549503326,-0.02457900531589985,-1.862645149230957e-09,0.0,-0.0121034886687994,0.3267374038696289,0.8744194363475587,-0.3564673960208893,0.8423625230789185,-0.36857086420059204,0.9220142364501953,1.8177194595336914,0.4901304244995117,,,,,,,
5276772000.0,76.76,-1.2400000095367432,12041169408.0,2183.439991927057,126.0,-0.005726933013647795,520192.0,632.046196937561,8.867906409193438e-15,0.0,2.481877088546753,-0.024818766862154007,0.043334320187568665,-0.024818770587444305,3.725290298461914e-09,0.0,-0.01177330780774355,0.2941957712173462,0.8297440268203712,-0.23860108852386475,0.67169588804245,-0.2503744065761566,0.7129930257797241,1.875938892364502,0.49040651321411133,,,,,,,
5276772000.0,75.92,-1.2200000286102295,12041169408.0,2137.3076590717023,127.0,-0.01015955675393343,524288.0,633.9626266956329,9.048317650695026e-15,0.0,2.4792113304138184,-0.024792110547423363,0.042705148458480835,-0.024792112410068512,1.862645149230957e-09,0.0,0.0010321852751076221,0.2922842800617218,0.9112415561836982,-0.3305145502090454,0.9459649324417114,-0.32948237657546997,0.9810712933540344,1.9164297580718994,0.4902341365814209,,,,,,,
,,,,,,,,,,,,,,,,,,,,,,,,,,0.0030496467370539904,0.05766671150922775,0.04403690621256828,0.0030496467370539904,0.05766671150922775,0.04403690621256828,
,,,,,,,,,,,,,,,,,,,,,,,,,,0.002087122993543744,0.041213832795619965,0.036243289709091187,0.002087122993543744,0.041213832795619965,0.036243289709091187,
,,,,,,,,,,,,,,,,,,,,,,,,,,0.0020102213602513075,0.037556327879428864,0.03349071368575096,0.0020102213602513075,0.037556327879428864,0.03349071368575096,
,,,,,,,,,,,,,,,,,,,,,,,,,,0.001793093397282064,0.03536250442266464,0.03184635564684868,0.001793093397282064,0.03536250442266464,0.03184635564684868,
,,,,,,,,,,,,,,,,,,,,,,,,,,0.0019075688906013966,0.0327795036137104,0.029755612835288048,0.0019075688906013966,0.0327795036137104,0.029755612835288048,
,,,,,,,,,,,,,,,,,,,,,,,,,,0.0017752305138856173,0.030945852398872375,0.027870964258909225,0.0017752305138856173,0.030945852398872375,0.027870964258909225,
,,,,,,,,,,,,,,,,,,,,,,,,,,,,,,,,-0.96
5277036000.0,76.61,-1.0700000524520874,11990521856.0,30.531457366077003,128.0,-0.00469618383795023,528384.0,768.1193408966064,8.864436962241484e-15,0.0,2.4416112899780273,-0.024416111409664154,0.040487371385097504,-0.024416113272309303,1.862645149230957e-09,0.0,0.002526279538869858,0.2845841646194458,0.751088667839257,-0.143196702003479,0.5105587244033813,-0.14067041873931885,0.5704116225242615,134.1567142009735,0.515984296798706,,,,,,,
5277036000.0,76.34,-0.9200000166893005,12041169408.0,2110.3019737369814,129.0,-0.006268335040658712,532480.0,770.060295343399,9.305056725139593e-15,0.0,2.4319024085998535,-0.02431901916861534,0.03939460217952728,-0.02431902289390564,3.725290298461914e-09,0.0,-0.004420461133122444,0.28069359064102173,0.8655326850384155,-0.22266073524951935,0.7182508707046509,-0.22708119451999664,0.7654628753662109,1.9409544467926025,0.489945650100708,,,,,,,
5277036000.0,76.25,-0.6800000071525574,12041169408.0,2234.929162613279,130.0,-0.0019620470702648163,536576.0,771.8930156230927,8.640657633840476e-15,0.0,2.416907787322998,-0.024169081822037697,0.02125295251607895,-0.0241690780967474,-3.725290298461914e-09,0.0,0.022850312292575836,0.20492441952228546,0.9057821399680352,-0.10491006076335907,0.6340417861938477,-0.08205974847078323,0.6676165461540222,1.8327202796936035,0.48993921279907227,,,,,,,
5277036000.0,76.29,-0.44999998807907104,12041169408.0,2277.833525695497,131.0,-0.005107383243739605,540672.0,773.6912155151367,1.004578364938169e-14,0.0,2.351705551147461,-0.023517055436968803,0.026917919516563416,-0.023517055436968803,0.0,0.0,0.01883673667907715,0.231287881731987,0.9165842946804754,-0.2336263358592987,0.7508944272994995,-0.21478959918022156,0.8008090257644653,1.7981998920440674,0.49001598358154297,,,,,,,
5277036000.0,78.32,-0.8100000023841858,12041169408.0,2246.1993356272283,132.0,-0.006033241283148527,544768.0,775.514740228653,1.0205378209171556e-14,0.0,2.317377805709839,-0.023173777386546135,0.025272848084568977,-0.023173777386546135,0.0,0.0,-0.007519503124058247,0.22472535073757172,0.9015494322284324,-0.23394688963890076,0.6519291996955872,-0.24146640300750732,0.7162142395973206,1.8235247135162354,0.4900016784667969,,,,,,,
5277036000.0,79.94,-0.8799999952316284,12041169408.0,2205.716210237426,133.0,-0.005780234467238188,548864.0,777.3717334270477,9.830677938360566e-15,0.0,2.275533437728882,-0.0227553341537714,0.027032382786273956,-0.0227553341537714,0.0,0.0,0.029498092830181122,0.23066778481006622,0.9128392868403169,-0.2693668007850647,0.7850971221923828,-0.23986868560314178,0.7813156247138977,1.8569931983947754,0.4900071620941162,,,,,,,
5277036000.0,78.17,-0.7400000095367432,12041169408.0,2187.786504030626,134.0,-0.004078643396496773,552960.0,779.2439453601837,1.0812531425763439e-14,0.0,2.2635974884033203,-0.02263597398996353,0.028030622750520706,-0.02263597398996353,0.0,0.0,0.02692168578505516,0.23526577651500702,0.8969611532660886,-0.18353617191314697,0.7149438858032227,-0.1566144824028015,0.7329229116439819,1.8722119331359863,0.4900057315826416,,,,,,,
5277036000.0,73.58,-0.5799999833106995,12041169408.0,2143.2862897123846,135.0,-0.0042165545746684074,557056.0,781.155029296875,1.0340686640297747e-14,0.0,2.3130083084106445,-0.023130085319280624,0.024331767112016678,-0.023130083456635475,-1.862645149230957e-09,0.0,0.039673302322626114,0.21702781319618225,0.932872869917277,-0.2380771040916443,0.843081533908844,-0.19840380549430847,0.8376571536064148,1.9110839366912842,0.49025940895080566,,,,,,,
5277036000.0,75.3,-0.6499999761581421,12041169408.0,2217.5630763384474,136.0,-0.003561455989256501,561152.0,783.0021018981934,1.0455178389712216e-14,0.0,2.2818245887756348,-0.022818241268396378,0.022652432322502136,-0.022818244993686676,3.725290298461914e-09,0.0,0.03446026146411896,0.21006697416305542,0.9037042380060349,-0.16207435727119446,0.6443322896957397,-0.1276141107082367,0.676946222782135,1.8470726013183594,0.4899163246154785,,,,,,,
5277036000.0,75.77,-0.4000000059604645,12041169408.0,2211.8416031261618,137.0,-0.0031712139025330544,565248.0,784.8539524078369,9.908740494779522e-15,0.0,2.3364572525024414,-0.023364568129181862,0.026143422350287437,-0.02336457185447216,3.725290298461914e-09,0.0,0.020615076646208763,0.22775979340076447,0.861957944237046,-0.185490682721138,0.5931928157806396,-0.1648755967617035,0.613015353679657,1.8518505096435547,0.4903700351715088,,,,,,,
5277036000.0,74.25,-0.6700000166893005,12041169408.0,2249.102601752376,138.0,-0.006747507490217686,569344.0,786.6751232147217,9.927822453015267e-15,0.0,2.362616539001465,-0.0236261747777462,0.03232245147228241,-0.023626165464520454,-1.0244548320770264e-08,0.0,0.027455221861600876,0.25279778242111206,0.8852908273462395,-0.22150322794914246,0.7240646481513977,-0.19404801726341248,0.7464043498039246,1.8211708068847656,0.4902987480163574,,,,,,,
5277036000.0,72.74,-0.7699999809265137,12041169408.0,2077.013437944036,139.0,-0.005166930146515369,573440.0,788.6471855640411,9.291178937331779e-15,0.0,2.4584848880767822,-0.024584852159023285,0.04011600464582443,-0.024584848433732986,-3.725290298461914e-09,0.0,-0.012401134707033634,0.28301551938056946,0.8208979913045151,-0.12060470879077911,0.6069192290306091,-0.13300584256649017,0.6687441468238831,1.972062349319458,0.4900188446044922,,,,,,,
5277036000.0,76.16,-0.6499999761581421,12041169408.0,2224.3116504453383,140.0,-0.004112050402909517,577536.0,790.4886541366577,9.199238593105008e-15,0.0,2.500347137451172,-0.025003470480442047,0.03462187200784683,-0.025003470480442047,0.0,0.0,-0.01600387506186962,0.26268699765205383,0.8486683837814162,-0.07238265126943588,0.6115883588790894,-0.08838652819395065,0.6752642393112183,1.8414685726165771,0.49006223678588867,,,,,,,
5277036000.0,78.15,-0.6100000143051147,12041169408.0,2188.9860017229157,141.0,-0.00345116900280118,581632.0,792.3598401546478,8.685760444215873e-15,0.0,2.550365924835205,-0.02550365775823593,0.03994143754243851,-0.02550365775823593,9.313225746154785e-10,0.0,0.009065613150596619,0.28252464532852173,0.8115866665396252,-0.05892230570316315,0.5710232853889465,-0.04985669255256653,0.6508793830871582,1.8711860179901123,0.49026036262512207,,,,,,,
5277036000.0,79.78,-0.4300000071525574,12041169408.0,2096.0632854883115,142.0,-0.002789605176076293,585728.0,794.3139796257019,7.840950111415168e-15,0.0,2.580310344696045,-0.025803105905652046,0.0542604923248291,-0.025803102180361748,-3.725290298461914e-09,0.0,-0.03250260278582573,0.3278579115867615,0.7213882626821313,0.07119780033826828,0.4895470440387726,0.03869519382715225,0.6211349368095398,1.9541394710540771,0.490006685256958,,,,,,,
5277036000.0,80.86,-0.5899999737739563,12041169408.0,2074.016537933001,143.0,-0.005316413007676601,589824.0,796.2888915538788,7.40553451894499e-15,0.0,2.592245578765869,-0.025922458618879318,0.058946315199136734,-0.02592245489358902,-3.725290298461914e-09,0.0,-0.061187099665403366,0.3379003405570984,0.8063393116368209,-0.10548561811447144,0.6479285955429077,-0.1666727066040039,0.7678349614143372,1.9749119281768799,0.4905095100402832,,,,,,,
5277036000.0,77.1,-0.9300000071525574,12041169408.0,2079.326446086939,144.0,-0.00731936888769269,593920.0,798.2587602138519,7.676151381197371e-15,0.0,2.6061148643493652,-0.02606114372611046,0.07205228507518768,-0.026061147451400757,2.7939677238464355e-09,0.0,-0.07131197303533554,0.37289825081825256,0.7721119227347004,-0.1739058941602707,0.6811978220939636,-0.24521785974502563,0.7811412215232849,1.9698686599731445,0.4909205436706543,,,,,,,
5277036000.0,77.4,-0.9100000262260437,12041169408.0,2095.716822830069,145.0,-0.0055947271175682545,598016.0,800.2132227420807,7.297981663434427e-15,0.0,2.618743419647217,-0.02618742547929287,0.06623295694589615,-0.026187432929873466,7.450580596923828e-09,0.0,-0.040474578738212585,0.36174526810646057,0.7529290581026253,-0.0627809464931488,0.6244751214981079,-0.10325552523136139,0.7277664542198181,1.9544625282287598,0.490037202835083,,,,,,,
5277036000.0,81.64,-0.9100000262260437,12041169408.0,2206.0473101876373,146.0,-0.00626838393509388,602112.0,802.0699372291565,6.774095173689432e-15,0.0,2.623119354248047,-0.02623118832707405,0.07865831255912781,-0.02623119205236435,3.725290298461914e-09,0.0,-0.06268370896577835,0.3916948437690735,0.6853562922170867,-0.10570936650037766,0.606847882270813,-0.1683930903673172,0.6982941031455994,1.8567144870758057,0.4903881549835205,,,,,,,
5277036000.0,79.87,-0.7799999713897705,12041169408.0,2111.675958767185,147.0,-0.00467113871127367,606208.0,804.0096287727356,7.521760991835436e-15,0.0,2.616243839263916,-0.026162436231970787,0.06426595151424408,-0.026162438094615936,1.3969838619232178e-09,0.0,0.020814867690205574,0.35795241594314575,0.7759378704312302,-0.14987578988075256,0.7175862193107605,-0.12906092405319214,0.7562077045440674,1.9396915435791016,0.4900672435760498,,,,,,,
5277036000.0,77.36,-0.6899999976158142,12041169408.0,2260.9113073799444,148.0,-0.0061444491147994995,610304.0,805.8212876319885,7.197367701827773e-15,0.0,2.6151723861694336,-0.026151716709136963,0.0663704052567482,-0.02615172415971756,6.51925802230835e-09,0.0,-0.00577918766066432,0.36433476209640503,0.7998841633013644,-0.2418474555015564,0.7024192214012146,-0.2476266473531723,0.8144415020942688,1.8116588592529297,0.4900181293487549,,,,,,,
5277036000.0,77.65,-0.800000011920929,12041169408.0,2237.3222023752783,149.0,-0.004413836635649204,614400.0,807.6520476341248,7.365635878997523e-15,0.0,2.610912561416626,-0.026109129190444946,0.06238424405455589,-0.026109125465154648,-3.725290298461914e-09,0.0,0.006023325026035309,0.35321760177612305,0.7511895847106055,-0.17880047857761383,0.666639506816864,-0.17277714610099792,0.7081218957901001,1.8307600021362305,0.4901916980743408,,,,,,,
5277036000.0,77.12,-0.6899999976158142,12041169408.0,2118.416066742205,150.0,-0.004150457680225372,618496.0,809.5855677127838,7.317063621670172e-15,0.0,2.6018385887145996,-0.026018381118774414,0.07517318427562714,-0.026018384844064713,3.725290298461914e-09,0.0,-0.019168898463249207,0.3873184025287628,0.7884389518802486,-0.24219617247581482,0.707033634185791,-0.2613650858402252,0.8420739769935608,1.9335200786590576,0.49004411697387695,,,,,,,
5277036000.0,78.31,-0.47999998927116394,12041169408.0,2285.5591319758146,151.0,-0.003620116040110588,622592.0,811.3776893615723,7.679620828149325e-15,0.0,2.598292827606201,-0.0259829331189394,0.05780012160539627,-0.025982927531003952,-6.05359673500061e-09,0.0,0.043565765023231506,0.3372388482093811,0.8413737549032184,-0.2695985436439514,0.8166218996047974,-0.2260327935218811,0.8467398881912231,1.7921216487884521,0.49011754989624023,,,,,,,
5277036000.0,79.41,-0.25999999046325684,12041169408.0,2182.1387388463027,152.0,0.0010733577655628324,626688.0,813.2547469139099,7.66574304034151e-15,0.0,2.5696523189544678,-0.025696542114019394,0.0625464916229248,-0.0256965234875679,-1.862645149230957e-08,0.0,0.07387115061283112,0.3459266424179077,0.7418685723935785,-0.1802314817905426,0.614489734172821,-0.10636032372713089,0.6808691024780273,1.8770575523376465,0.48994994163513184,,,,,,,
5277036000.0,77.98,-0.07999999821186066,12041169408.0,2211.474885280476,153.0,-0.0018800203688442707,630784.0,815.1069045066833,8.505349202714285e-15,0.0,2.531872272491455,-0.02531871572136879,0.046290621161460876,-0.025318721309304237,4.6566128730773926e-09,0.0,0.028875848278403282,0.3029353618621826,0.839845547770318,-0.22428852319717407,0.7127084732055664,-0.19541269540786743,0.7569730877876282,1.8521575927734375,0.49010801315307617,,,,,,,
5277036000.0,77.68,-0.5099999904632568,12041169408.0,2185.9100337215455,154.0,-0.0044369446113705635,634880.0,816.9807236194611,8.637188186888523e-15,0.0,2.5458431243896484,-0.025458430871367455,0.08525437861680984,-0.025458430871367455,0.0,0.0,0.04972654953598976,0.40997201204299927,0.7563737135412127,-0.31697285175323486,0.7720761299133301,-0.2672463059425354,0.8306003212928772,1.87381911277771,0.4900181293487549,,,,,,,
5277036000.0,81.51,-0.5400000214576721,12041169408.0,2254.0864397561945,155.0,-0.004573296755552292,638976.0,818.7978677749634,8.250344851745695e-15,0.0,2.5082898139953613,-0.025082897394895554,0.06320913136005402,-0.025082897394895554,0.0,0.0,0.014902960509061813,0.3552843928337097,0.6739879832701274,-0.09916740655899048,0.503831684589386,-0.08426444232463837,0.6222419738769531,1.8171441555023193,0.49011707305908203,,,,,,,
5277036000.0,79.95,-0.4699999988079071,12041169408.0,2159.9459964128027,156.0,-0.0030986792407929897,643072.0,820.6942114830017,8.765557724110806e-15,0.0,2.473048210144043,-0.02473047748208046,0.044731877744197845,-0.024730481207370758,2.7939677238464355e-09,0.0,-0.004805823788046837,0.2991028428077698,0.7189514925570637,-0.08624742925167084,0.5294721126556396,-0.09105324745178223,0.5641958713531494,1.89634370803833,0.4900650978088379,,,,,,,
5277036000.0,78.96,-0.550000011920929,12041169408.0,2213.625961623577,157.0,-0.001619033981114626,647168.0,822.5445692539215,8.595554823465079e-15,0.0,2.5212414264678955,-0.025212407112121582,0.03434270992875099,-0.02521241456270218,7.450580596923828e-09,0.0,0.019337115809321404,0.2613966166973114,0.8365441542743506,-0.1319972276687622,0.5588798522949219,-0.11266010254621506,0.6465464234352112,1.8503577709197998,0.4900195598602295,,,,,,,
5277036000.0,80.38,-0.6800000071525574,12041169408.0,2284.7430115323214,158.0,-0.0066134510561823845,651264.0,824.3373310565948,9.06739960893077e-15,0.0,2.533423900604248,-0.025334235280752182,0.0648374855518341,-0.02533423900604248,3.725290298461914e-09,0.0,0.023920156061649323,0.35935264825820923,0.7571968110913706,-0.17625299096107483,0.6048746109008789,-0.1523328423500061,0.7292789220809937,1.7927618026733398,0.489856481552124,,,,,,,
5277036000.0,80.92,-0.46000000834465027,12041169408.0,2223.944528860625,159.0,0.0014860299415886402,655360.0,826.1791036128998,8.36657132463614e-15,0.0,2.5417656898498535,-0.02541763335466385,0.04583422839641571,-0.02541765570640564,2.2351741790771484e-08,0.0,0.0669369250535965,0.2953120470046997,0.6823636527565962,-0.0360078401863575,0.45450150966644287,0.0309290774166584,0.5239816308021545,1.8417725563049316,0.4900808334350586,,,,,,,
,,,,,,,,,,,,,,,,,,,,,,,,,,0.004477972164750099,0.06150643527507782,0.0524323433637619,0.004477972164750099,0.06150643527507782,0.0524323433637619,
,,,,,,,,,,,,,,,,,,,,,,,,,,0.002651770133525133,0.046885885298252106,0.042259763926267624,0.002651770133525133,0.046885885298252106,0.042259763926267624,
,,,,,,,,,,,,,,,,,,,,,,,,,,0.0023041211534291506,0.043237656354904175,0.039995379745960236,0.0023041211534291506,0.043237656354904175,0.039995379745960236,
,,,,,,,,,,,,,,,,,,,,,,,,,,0.002183932811021805,0.03830154985189438,0.035541512072086334,0.002183932811021805,0.03830154985189438,0.035541512072086334,
,,,,,,,,,,,,,,,,,,,,,,,,,,0.002156414557248354,0.0352315716445446,0.03222758322954178,0.002156414557248354,0.0352315716445446,0.03222758322954178,
,,,,,,,,,,,,,,,,,,,,,,,,,,0.0019486561650410295,0.033019840717315674,0.03032834827899933,0.0019486561650410295,0.033019840717315674,0.03032834827899933,
,,,,,,,,,,,,,,,,,,,,,,,,,,,,,,,,-0.31
5277036000.0,81.54,-0.11999999731779099,11990521856.0,30.57591468416227,160.0,-0.0018939459696412086,659456.0,960.1407542228699,9.26342336171615e-15,0.0,2.5596108436584473,-0.02559610642492771,0.04454883933067322,-0.02559610828757286,1.862645149230957e-09,0.0,-0.012559126131236553,0.29826441407203674,0.8771184857854472,-0.15324510633945465,0.7205912470817566,-0.16580423712730408,0.8508601188659668,133.9616506099701,0.510206937789917,,,,,,,
5277036000.0,81.9,0.15000000596046448,12041169408.0,2119.6424099012484,161.0,0.003520373022183776,663552.0,962.0731556415558,9.030970415935258e-15,0.0,2.5773191452026367,-0.025773201137781143,0.05691395699977875,-0.025773189961910248,-1.0244548320770264e-08,0.0,0.0678289532661438,0.3305356502532959,0.7852803724527879,0.006811036728322506,0.6926355361938477,0.07464000582695007,0.713316798210144,1.932401418685913,0.4899320602416992,,,,,,,
5277036000.0,81.76,0.3199999928474426,12041169408.0,2165.5213581527332,162.0,0.0010838638991117477,667648.0,963.9646170139313,9.998946115530316e-15,0.0,2.5404248237609863,-0.025404248386621475,0.05398637801408768,-0.025404248386621475,0.0,0.0,0.017976276576519012,0.3281400501728058,0.8055892259021431,0.014585405588150024,0.637688934803009,0.03256168216466904,0.74421626329422,1.8914613723754883,0.48993968963623047,,,,,,,
5277036000.0,78.91,0.10000000149011612,12041169408.0,2154.072957176001,163.0,-0.0008136946707963943,671744.0,965.866131067276,9.506284648352903e-15,0.0,2.5664000511169434,-0.02566399984061718,0.06738266348838806,-0.02566399984061718,0.0,0.0,-0.028608843684196472,0.366032212972641,0.6382090323065907,0.09726940095424652,0.561830997467041,0.06866055727005005,0.6085418462753296,1.9015140533447266,0.4902324676513672,,,,,,,
5277036000.0,78.85,-0.029999999329447746,12041169408.0,2156.861411810877,164.0,-0.00013587408466264606,675840.0,967.7651867866516,9.412609580650155e-15,0.0,2.5608606338500977,-0.025608614087104797,0.04338885843753815,-0.0256086066365242,-7.450580596923828e-09,0.0,0.017530348151922226,0.29409438371658325,0.6779586909049704,0.08217982202768326,0.5609230995178223,0.09971016645431519,0.5182400345802307,1.8990557193756104,0.4901092052459717,,,,,,,
5277036000.0,81.05,-0.10000000149011612,12041169408.0,2055.094805905703,165.0,0.00013606809079647064,679936.0,969.7582821846008,9.936496070395151e-15,0.0,2.5524685382843018,-0.02552468329668045,0.05910249054431915,-0.0255246851593256,2.7939677238464355e-09,0.0,-0.01322865765541792,0.343596875667572,0.7462755573094959,0.062057897448539734,0.6232335567474365,0.04882923513650894,0.6821314096450806,1.9930953979492188,0.4901702404022217,,,,,,,
5277036000.0,79.96,-0.41999998688697815,12041169408.0,2091.5526541433087,166.0,-0.005991975776851177,684032.0,971.7166359424591,9.698838954186328e-15,0.0,2.5378241539001465,-0.025378240272402763,0.08812621980905533,-0.025378240272402763,-4.656612873077393e-10,0.0,-0.09868095070123672,0.4081117510795593,0.6277150552916078,0.10986733436584473,0.5242644548416138,0.0111863873898983,0.6688693761825562,1.9583537578582764,0.490311861038208,,,,,,,
5277036000.0,78.52,-0.46000000834465027,12041169408.0,2230.6208384419656,167.0,-0.0017724838107824326,688128.0,973.5528960227966,1.0273032424734652e-14,0.0,2.562410831451416,-0.025624115020036697,0.07479642331600189,-0.0256241075694561,-7.450580596923828e-09,0.0,-0.04045708104968071,0.3846975862979889,0.5676881673563405,0.09071401506662369,0.5093924403190613,0.05025693401694298,0.5850875377655029,1.8362600803375244,0.4899888038635254,,,,,,,
5277036000.0,78.27,-0.3400000035762787,12041169408.0,2119.8691722279723,168.0,-0.002320502419024706,692224.0,975.4850907325745,1.0661610483353456e-14,0.0,2.5422027111053467,-0.025422027334570885,0.0736401230096817,-0.025422027334570885,0.0,0.0,-0.06064624711871147,0.3789951503276825,0.6179130847708804,0.1718650460243225,0.5386320948600769,0.11121879518032074,0.6131300330162048,1.932194709777832,0.4901421070098877,,,,,,,
5277036000.0,77.91,-0.4099999964237213,12041169408.0,2227.247217378261,169.0,-0.0016401613829657435,696320.0,977.3241322040558,1.0236603231739139e-14,0.0,2.5336034297943115,-0.025336019694805145,0.06311432272195816,-0.02533603459596634,1.4901161193847656e-08,0.0,-0.039145730435848236,0.35316669940948486,0.5550570920460933,0.10145413875579834,0.4618788957595825,0.062308408319950104,0.5294531583786011,1.8390414714813232,0.4901301860809326,,,,,,,
5277036000.0,80.79,0.05999999865889549,12041169408.0,2134.9891577018393,170.0,0.002737395465373993,700416.0,979.2426431179047,1.0998146837692957e-14,0.0,2.5228593349456787,-0.025228597223758698,0.047622520476579666,-0.0252285934984684,-2.7939677238464355e-09,0.0,0.01873546838760376,0.3080863356590271,0.6230779023121078,0.0918232798576355,0.4501618444919586,0.11055876314640045,0.5018185377120972,1.918510913848877,0.49005579948425293,,,,,,,
5277036000.0,85.51,0.4099999964237213,12041169408.0,2006.3431739492923,171.0,0.001233212649822235,704512.0,981.2841682434082,1.1383255449359808e-14,0.0,2.541410446166992,-0.025414105504751205,0.05632002651691437,-0.025414103642106056,-1.862645149230957e-09,0.0,-0.002337303012609482,0.3356517553329468,0.5960417897119444,0.13694407045841217,0.43450549244880676,0.13460677862167358,0.5281054973602295,2.04152512550354,0.4901144504547119,,,,,,,
5277036000.0,81.52,0.14000000059604645,12041169408.0,2230.675867993362,172.0,0.0006860184366814792,708608.0,983.1203830242157,1.1950510026004224e-14,0.0,2.476086139678955,-0.024760864675045013,0.06285513192415237,-0.024760860949754715,-3.725290298461914e-09,0.0,-0.0040962472558021545,0.354576051235199,0.5879013065696973,0.07386576384305954,0.44381794333457947,0.06976951658725739,0.5523428916931152,1.8362147808074951,0.49009203910827637,,,,,,,
5277036000.0,81.48,0.10999999940395355,12041169408.0,2155.133023274485,173.0,0.0019231324549764395,712704.0,985.0209617614746,1.1298253999036945e-14,0.0,2.468614101409912,-0.024686140939593315,0.04413338005542755,-0.024686140939593315,0.0,0.0,0.024805601686239243,0.29609599709510803,0.6575912011120528,0.005729544907808304,0.46203726530075073,0.030535146594047546,0.5060111880302429,1.9005787372589111,0.49009203910827637,,,,,,,
5277036000.0,82.37,0.27000001072883606,12041169408.0,2150.9151642802135,174.0,0.0012378020910546184,716800.0,986.925267457962,1.1423154089307275e-14,0.0,2.441821575164795,-0.02441820688545704,0.04937764257192612,-0.024418214336037636,7.450580596923828e-09,0.0,-0.010988321155309677,0.3140996992588043,0.5949568200946345,0.07276773452758789,0.3232943117618561,0.061779409646987915,0.49353376030921936,1.9043056964874268,0.4900829792022705,,,,,,,
5277036000.0,76.69,0.07999999821186066,12041169408.0,2001.0083369770289,175.0,0.0008265083888545632,720896.0,988.9722354412079,1.2446640940133591e-14,0.0,2.4620676040649414,-0.024620674550533295,0.053900621831417084,-0.024620676413178444,1.862645149230957e-09,0.0,0.01471258420497179,0.3280412554740906,0.33148535753135056,0.04059941694140434,0.3398462235927582,0.05531200021505356,0.401211142539978,2.0469679832458496,0.49184703826904297,,,,,,,
5277036000.0,78.14,0.20999999344348907,12041169408.0,2111.9389239331094,176.0,0.002483464078977704,724992.0,990.9116854667664,1.3171755353091896e-14,0.0,2.4453272819519043,-0.02445327118039131,0.03896409273147583,-0.02445327304303646,1.1641532182693481e-09,0.0,0.027789179235696793,0.277803510427475,0.49973515839035765,0.035456251353025436,0.3288220465183258,0.06324543058872223,0.3927694857120514,1.9394500255584717,0.49046826362609863,,,,,,,
5277036000.0,80.69,0.36000001430511475,12041169408.0,2095.907043496868,177.0,0.0011055441573262215,729088.0,992.8659706115723,1.268082860939046e-14,0.0,2.506427764892578,-0.025064287707209587,0.04278230294585228,-0.02506427653133869,-1.1175870895385742e-08,0.0,0.004650002345442772,0.29251304268836975,0.5115171684770297,0.05962783098220825,0.2939944565296173,0.06427782773971558,0.4185241758823395,1.9542851448059082,0.4905211925506592,,,,,,,
5277036000.0,81.89,0.36000001430511475,12041169408.0,2082.2019324629387,178.0,0.0031830044463276863,733184.0,994.8331189155579,1.301216079330203e-14,0.0,2.528386116027832,-0.025283854454755783,0.055845849215984344,-0.02528386004269123,6.51925802230835e-09,0.0,0.02429950051009655,0.3333592116832733,0.3283091643892194,0.046758148819208145,0.2439393699169159,0.07105764746665955,0.4067501723766327,1.9671483039855957,0.49096155166625977,,,,,,,
5277036000.0,81.36,0.36000001430511475,12041169408.0,2034.8098668894947,179.0,0.0031860750168561935,737280.0,996.8460834026337,1.3716458524548614e-14,0.0,2.5413451194763184,-0.025413449853658676,0.05504905432462692,-0.025413449853658676,0.0,0.0,0.03403325006365776,0.3301006853580475,0.4347311509441162,0.058396078646183014,0.3220524489879608,0.09242933243513107,0.439054936170578,2.0129644870758057,0.49010491371154785,,,,,,,
5277036000.0,81.53,0.27000001072883606,12041169408.0,2115.2006622918534,180.0,0.001524672145023942,741376.0,998.7825427055359,1.449014519483427e-14,0.0,2.5377330780029297,-0.02537732757627964,0.08059831708669662,-0.02537732943892479,1.862645149230957e-09,0.0,-0.008408725261688232,0.40145397186279297,0.4437316928546803,0.049620114266872406,0.34212568402290344,0.041211389005184174,0.5382617712020874,1.9364593029022217,0.49038195610046387,,,,,,,
5277036000.0,84.93,0.27000001072883606,12041169408.0,2158.2923762201103,181.0,0.002080724574625492,745472.0,1000.6803393363953,1.526730131207188e-14,0.0,2.557373523712158,-0.02557373046875,0.10469409823417664,-0.0255737341940403,3.725290298461914e-09,0.0,-0.0197655837982893,0.45721831917762756,0.3187843146154138,0.05700000375509262,0.29423999786376953,0.037234410643577576,0.5539636611938477,1.897796630859375,0.4903240203857422,,,,,,,
5277036000.0,88.82,0.0,12041169408.0,2200.428995214735,182.0,-0.005136048421263695,749568.0,1002.5417945384979,1.475555788665872e-14,0.0,2.554044008255005,-0.025540433824062347,0.1144871711730957,-0.025540439411997795,5.587935447692871e-09,0.0,-0.05594661831855774,0.4752888083457947,0.2991480225467862,0.040795400738716125,0.27008774876594543,-0.01515121664851904,0.5677333474159241,1.8614552021026611,0.4901461601257324,,,,,,,
5277036000.0,90.36,-0.5,12041169408.0,2192.7292455256434,183.0,-0.006656032986938953,753664.0,1004.4097862243652,1.5872719805187785e-14,0.0,2.551248073577881,-0.02551247552037239,0.18177437782287598,-0.02551247924566269,3.725290298461914e-09,0.0,-0.11352965235710144,0.5922375917434692,0.22718548262003524,0.07702691853046417,0.2969091534614563,-0.03650274872779846,0.6736873388290405,1.8679916858673096,0.49002861976623535,,,,,,,
5277036000.0,86.62,-0.9399999976158142,12041169408.0,2158.2541455315068,184.0,-0.005271999631077051,757760.0,1006.3076164722443,1.5678430775878383e-14,0.0,2.545565605163574,-0.025455651804804802,0.15184620022773743,-0.0254556555300951,3.725290298461914e-09,0.0,-0.10355716943740845,0.5413315296173096,0.24699077222603294,0.09138268232345581,0.2813551723957062,-0.012174481526017189,0.6238256096839905,1.8978302478790283,0.49024271965026855,,,,,,,
5277036000.0,83.36,-0.3700000047683716,12041169408.0,2111.0231123156404,185.0,0.0024988767690956593,761856.0,1008.2479078769684,1.583802533566825e-14,0.0,2.538414239883423,-0.02538413181900978,0.0808454304933548,-0.025384141132235527,9.313225746154785e-09,0.0,0.013580340892076492,0.4019277095794678,0.3357146281903789,0.029901528730988503,0.30486419796943665,0.043481867760419846,0.49314039945602417,1.940291404724121,0.4902207851409912,,,,,,,
5277036000.0,82.17,0.44999998807907104,12041169408.0,2162.490793484081,186.0,0.004028744995594025,765952.0,1010.1420199871063,1.4425960426223128e-14,0.0,2.5364091396331787,-0.025364084169268608,0.06603410840034485,-0.025364091619849205,7.916241884231567e-09,0.0,0.04236994683742523,0.3609775900840759,0.4156571479195488,0.04592147096991539,0.28265753388404846,0.08829142153263092,0.4722222089767456,1.8941121101379395,0.49027395248413086,,,,,,,
5277036000.0,82.17,0.36000001430511475,12041169408.0,2175.6443728961276,187.0,0.0018077619606629014,770048.0,1012.0246806144714,1.5144135945277526e-14,0.0,2.5094408988952637,-0.0250944122672081,0.06010955572128296,-0.0250944085419178,-3.725290298461914e-09,0.0,0.002164500765502453,0.3467618525028229,0.4599545078339321,0.031804535537958145,0.31803858280181885,0.03396903723478317,0.4718632400035858,1.8826606273651123,0.4900178909301758,,,,,,,
5277036000.0,86.05,0.6399999856948853,12041169408.0,2162.0882840980466,188.0,0.00709997583180666,774144.0,1013.9191453456879,1.3787582187063663e-14,0.0,2.511460304260254,-0.02511458843946457,0.04691649228334427,-0.025114603340625763,1.4901161193847656e-08,0.0,0.09036757051944733,0.29272446036338806,0.4699382817822402,0.04987850785255432,0.32435378432273865,0.14024606347084045,0.40206456184387207,1.8944647312164307,0.4899141788482666,,,,,,,
5277036000.0,83.87,0.9700000286102295,12041169408.0,2256.3926710021783,189.0,0.004876391962170601,778240.0,1015.734432220459,1.469657728847551e-14,0.0,2.470517158508301,-0.0247051902115345,0.04997914656996727,-0.024705171585083008,-1.862645149230957e-08,0.0,0.04685605317354202,0.3127085864543915,0.5819220599833962,0.07184923440217972,0.33785176277160645,0.11870529502630234,0.4836277365684509,1.8152868747711182,0.49002766609191895,,,,,,,
5277036000.0,85.94,0.6299999952316284,12041169408.0,2188.919065056877,190.0,0.0025115753524005413,782336.0,1017.6056754589081,1.4247283908197517e-14,0.0,2.4015657901763916,-0.024015650153160095,0.037898823618888855,-0.024015657603740692,7.450580596923828e-09,0.0,0.0357089564204216,0.2730214595794678,0.6261037272473002,0.025506073608994484,0.37375104427337646,0.061215028166770935,0.4464997351169586,1.8712432384490967,0.49019289016723633,,,,,,,
5277036000.0,86.4,0.23000000417232513,12041169408.0,2261.5574540671946,191.0,0.002374896313995123,786432.0,1019.4168167114258,1.5947312914654788e-14,0.0,2.284780740737915,-0.022847797721624374,0.04718386381864548,-0.02284780703485012,9.313225746154785e-09,0.0,0.003955352120101452,0.30720534920692444,0.5860534900654313,0.10778246819972992,0.3530462086200714,0.11173783242702484,0.4774816036224365,1.8111412525177002,0.49012255668640137,,,,,,,
,,,,,,,,,,,,,,,,,,,,,,,,,,0.023016339167952538,0.09254352003335953,0.0733504593372345,0.023016339167952538,0.09254352003335953,0.0733504593372345,
,,,,,,,,,,,,,,,,,,,,,,,,,,0.009209251962602139,0.0688309594988823,0.06305854767560959,0.009209251962602139,0.0688309594988823,0.06305854767560959,
,,,,,,,,,,,,,,,,,,,,,,,,,,0.008460456505417824,0.06227847561240196,0.05724950134754181,0.008460456505417824,0.06227847561240196,0.05724950134754181,
,,,,,,,,,,,,,,,,,,,,,,,,,,0.006741298362612724,0.057516664266586304,0.05178630352020264,0.006741298362612724,0.057516664266586304,0.05178630352020264,
,,,,,,,,,,,,,,,,,,,,,,,,,,0.006565682590007782,0.05393577739596367,0.04876304045319557,0.006565682590007782,0.05393577739596367,0.04876304045319557,
,,,,,,,,,,,,,,,,,,,,,,,,,,0.0063316249288618565,0.049709975719451904,0.04448191821575165,0.0063316249288618565,0.049709975719451904,0.04448191821575165,
,,,,,,,,,,,,,,,,,,,,,,,,,,,,,,,,0.45
5277048000.0,79.41,0.4300000071525574,11990521856.0,30.603641716804336,192.0,0.005313682369887829,790528.0,1153.2570974826813,1.3388595787588997e-14,0.0,2.2575619220733643,-0.022575603798031807,0.04834131896495819,-0.022575618699193,1.4901161193847656e-08,0.0,0.06030728667974472,0.3050711452960968,0.755853732241213,0.04880857095122337,0.5249680876731873,0.1091158539056778,0.6174134016036987,133.8402807712555,0.5078892707824707,,,,,,,
5277048000.0,78.53,0.6100000143051147,12041169408.0,2136.3737036011353,193.0,0.0033611247781664133,794624.0,1155.1743650436401,1.341461663972865e-14,0.0,2.262453556060791,-0.022624528035521507,0.0346226692199707,-0.022624535486102104,7.450580596923828e-09,0.0,0.012074992060661316,0.2628999948501587,0.6334110261078283,0.15097087621688843,0.36900657415390015,0.16304585337638855,0.43421104550361633,1.9172675609588623,0.4900202751159668,,,,,,,
5277048000.0,81.61,0.5400000214576721,12041169408.0,2063.960333215598,194.0,0.004205501638352871,798720.0,1157.158899307251,1.490300938211675e-14,0.0,2.159923791885376,-0.021599233150482178,0.058214347809553146,-0.021599236875772476,3.725290298461914e-09,0.0,0.011067882180213928,0.34107857942581177,0.6512195997621544,0.1640797257423401,0.49559274315834045,0.17514760792255402,0.5775351524353027,1.9845342636108398,0.48985743522644043,,,,,,,
5277048000.0,83.29,0.5199999809265137,12041169408.0,2132.337124321662,195.0,0.002105308696627617,802816.0,1159.0797963142395,1.5031378919339033e-14,0.0,2.118074893951416,-0.02118074893951416,0.0326569601893425,-0.02118074893951416,-4.656612873077393e-10,0.0,0.02036396786570549,0.25478437542915344,0.6993684913834762,0.1261764019727707,0.43417081236839294,0.14654037356376648,0.4646816849708557,1.9208970069885254,0.48993444442749023,,,,,,,
5277048000.0,79.26,0.3199999928474426,12041169408.0,2186.832138734298,196.0,0.0011244709603488445,806912.0,1160.952825307846,1.48544371247894e-14,0.0,2.163742780685425,-0.021637428551912308,0.04692685231566429,-0.02163742668926716,-1.862645149230957e-09,0.0,-0.012773493304848671,0.3061264753341675,0.7019058292092191,0.09000788629055023,0.533163845539093,0.07723439484834671,0.5606917142868042,1.8730289936065674,0.489990234375,,,,,,,
5277048000.0,78.13,0.4399999976158142,12041169408.0,2113.8465365258976,197.0,0.005487710237503052,811008.0,1162.8905251026154,1.5371384720630488e-14,0.0,2.163128614425659,-0.021631285548210144,0.0437973290681839,-0.021631285548210144,0.0,0.0,0.013268363662064075,0.2957024872303009,0.736269472896202,0.28952556848526,0.4970844089984894,0.302793949842453,0.5758041739463806,1.937699794769287,0.49010300636291504,,,,,,,
5277048000.0,80.95,0.5,12041169408.0,2183.785533848743,198.0,0.0038033551536500454,815104.0,1164.7661671638489,1.593516985032295e-14,0.0,2.1969404220581055,-0.02196940779685974,0.04634121432900429,-0.021969404071569443,-3.725290298461914e-09,0.0,-0.017033260315656662,0.3039981424808502,0.7609638292363357,0.205241858959198,0.571782112121582,0.18820858001708984,0.6217833757400513,1.8756420612335205,0.489926815032959,,,,,,,
5277048000.0,78.52,0.49000000953674316,12041169408.0,2137.280803763036,199.0,0.0014099308755248785,819200.0,1166.6826210021973,1.4847498230885492e-14,0.0,2.2182891368865967,-0.022182868793606758,0.06842423975467682,-0.02218289114534855,2.2351741790771484e-08,0.0,-0.03722037374973297,0.36809808015823364,0.6263411569885038,0.21463525295257568,0.49686676263809204,0.17741486430168152,0.6021794676780701,1.9164538383483887,0.4897587299346924,,,,,,,
5277048000.0,75.89,0.4399999976158142,12041169408.0,2172.7843639277107,200.0,0.00465641962364316,823296.0,1168.5677597522736,1.510944147575799e-14,0.0,2.2214572429656982,-0.02221457101404667,0.06350517272949219,-0.02221457101404667,0.0,0.0,0.009636067785322666,0.3562983274459839,0.6885701137108813,0.23695610463619232,0.5573110580444336,0.24659216403961182,0.6384598612785339,1.885138750076294,0.48999905586242676,,,,,,,
5277048000.0,78.62,0.3700000047683716,12041169408.0,2268.6649536663253,201.0,0.0024006462190300226,827392.0,1170.3732268810272,1.6887533038634217e-14,0.0,2.2438080310821533,-0.02243807539343834,0.07621104270219803,-0.022438079118728638,3.725290298461914e-09,0.0,-0.0035351011902093887,0.39044439792633057,0.595150543814466,0.20987558364868164,0.5175760388374329,0.2063404768705368,0.6136382222175598,1.805467128753662,0.4899923801422119,,,,,,,
5277048000.0,84.55,0.10999999940395355,12041169408.0,2234.1432728757595,202.0,-0.0024020567070692778,831488.0,1172.2065918445587,1.7366316718003816e-14,0.0,2.2373180389404297,-0.02237319014966488,0.12716269493103027,-0.022373178973793983,-1.1175870895385742e-08,0.0,-0.07226118445396423,0.4991638660430908,0.49463327644080823,0.10746961832046509,0.5747994780540466,0.03520843759179115,0.702165961265564,1.8333649635314941,0.48987770080566406,,,,,,,
5277048000.0,80.9,0.10999999940395355,12041169408.0,2145.134993324184,203.0,0.004101128317415714,835584.0,1174.1160287857056,1.651630221477518e-14,0.0,2.242828369140625,-0.02242829091846943,0.08519509434700012,-0.022428283467888832,-7.450580596923828e-09,0.0,-0.017540298402309418,0.41246098279953003,0.4257790351128363,0.31298983097076416,0.4393180012702942,0.29544949531555176,0.5443062782287598,1.9094369411468506,0.48991966247558594,,,,,,,
5277048000.0,79.88,0.6800000071525574,12041169408.0,2153.769694073365,204.0,0.005804539658129215,839680.0,1176.0178105831146,1.6443443828784154e-14,0.0,2.225510835647583,-0.02225511148571968,0.04925227910280228,-0.022255107760429382,-3.725290298461914e-09,0.0,0.02485479786992073,0.3129068613052368,0.6434514454422116,0.2194482684135437,0.47128260135650635,0.24430306255817413,0.5240294933319092,1.9017817974090576,0.4898993968963623,,,,,,,
5277048000.0,87.27,0.7699999809265137,12041169408.0,2244.285869330359,205.0,0.0042504011653363705,843776.0,1177.8428900241852,1.7555401576885288e-14,0.0,2.2610020637512207,-0.022610008716583252,0.07141030579805374,-0.022610019892454147,1.1175870895385742e-08,0.0,0.0028454046696424484,0.37795156240463257,0.6115055239993055,0.16605883836746216,0.4983648359775543,0.16890424489974976,0.606378436088562,1.8250794410705566,0.49018025398254395,,,,,,,
5277048000.0,87.52,0.9100000262260437,12041169408.0,2212.8110867058886,206.0,0.008221829310059547,847872.0,1179.693929195404,1.4786782909226304e-14,0.0,2.3149452209472656,-0.023149466142058372,0.06779535114765167,-0.02314945124089718,-1.4901161193847656e-08,0.0,0.07953891158103943,0.3595772981643677,0.5783748923837055,0.19957923889160156,0.46454671025276184,0.279118150472641,0.5537694692611694,1.851039171218872,0.4900083541870117,,,,,,,
5277048000.0,87.73,0.9399999976158142,12041169408.0,2172.677747576175,207.0,0.005815309006720781,851968.0,1181.579160451889,1.6365381272365198e-14,0.0,2.284116268157959,-0.022841166704893112,0.0743894875049591,-0.022841162979602814,-3.725290298461914e-09,0.0,-0.0008550044149160385,0.3857649266719818,0.6082833990785026,0.23084351420402527,0.4618861675262451,0.22998851537704468,0.6163632869720459,1.8852312564849854,0.4900496006011963,,,,,,,
5277048000.0,87.31,0.8299999833106995,12041169408.0,2236.9391231522486,208.0,0.003690750105306506,856064.0,1183.4102339744568,1.5801596142672736e-14,0.0,2.322638511657715,-0.023226384073495865,0.08553151041269302,-0.023226384073495865,0.0,0.0,-0.009899500757455826,0.413529634475708,0.538384610697608,0.2474156767129898,0.4663161039352417,0.23751616477966309,0.6086484789848328,1.831073522567749,0.48991942405700684,,,,,,,
5277048000.0,89.33,0.800000011920929,12041169408.0,2279.7562452261436,209.0,0.005392615683376789,860160.0,1185.2069172859192,1.595772125551065e-14,0.0,2.332502841949463,-0.02332502417266369,0.09345006942749023,-0.023325027897953987,4.190951585769653e-09,0.0,-0.00955251231789589,0.4322666823863983,0.5521559928244599,0.3124133348464966,0.45601722598075867,0.3028607964515686,0.6459343433380127,1.7966833114624023,0.4899916648864746,,,,,,,
5277048000.0,92.51,0.47999998927116394,12041169408.0,2188.0160992342903,210.0,0.0015623720828443766,864256.0,1187.078932762146,1.3490944472671629e-14,0.0,2.376227378845215,-0.023762274533510208,0.07845242321491241,-0.02376227267086506,-1.862645149230957e-09,0.0,-0.04321155697107315,0.3937962055206299,0.5414042577328875,0.24983809888362885,0.42573192715644836,0.2066265344619751,0.5815091133117676,1.8720154762268066,0.49010157585144043,,,,,,,
5277048000.0,90.06,0.6000000238418579,12041169408.0,2192.545388970468,211.0,0.002415429800748825,868352.0,1188.9470810890198,1.3673090437649194e-14,0.0,2.3834691047668457,-0.023834694176912308,0.07592648267745972,-0.02383469045162201,-3.725290298461914e-09,0.0,-0.04721317067742348,0.3868596851825714,0.559654433277391,0.3321445882320404,0.44064566493034363,0.2849314212799072,0.5829840302467346,1.8681483268737793,0.490023136138916,,,,,,,
5277048000.0,89.91,0.4399999976158142,12041169408.0,2197.029407424174,212.0,0.0039795939810574055,872448.0,1190.8114166259766,1.4025239303272485e-14,0.0,2.4009487628936768,-0.02400948666036129,0.07011143863201141,-0.02400948666036129,0.0,0.0,-0.027048951014876366,0.3735308349132538,0.6351726765339651,0.30085766315460205,0.4563620090484619,0.27380871772766113,0.6184189915657043,1.864335536956787,0.490250825881958,,,,,,,
5277048000.0,89.61,0.44999998807907104,12041169408.0,2083.2058118731993,213.0,0.0045520407147705555,876544.0,1192.7776169776917,1.2460518727941405e-14,0.0,2.414095878601074,-0.02414095774292946,0.06876160204410553,-0.02414095774292946,0.0,0.0,-0.02941262349486351,0.36971810460090637,0.6295486092574908,0.32970184087753296,0.4679490625858307,0.30028921365737915,0.6074423789978027,1.966200351715088,0.4901249408721924,,,,,,,
5277048000.0,88.35,0.6499999761581421,12041169408.0,2087.191976957614,214.0,0.004129728768020868,880640.0,1194.740062236786,1.2542050731312315e-14,0.0,2.3390376567840576,-0.0233903881162405,0.0564008392393589,-0.023390376940369606,-1.1175870895385742e-08,0.0,-0.02869151532649994,0.3346727192401886,0.6091860210078606,0.2236473262310028,0.39406779408454895,0.19495581090450287,0.5353468656539917,1.9624452590942383,0.49072813987731934,,,,,,,
5277048000.0,80.79,0.3499999940395355,12041169408.0,2173.7061521666624,215.0,0.0007125759148038924,884736.0,1196.6244015693665,1.2821341210944581e-14,0.0,2.3366527557373047,-0.023366538807749748,0.06965681910514832,-0.023366527631878853,-1.1175870895385742e-08,0.0,-0.06629262864589691,0.36735799908638,0.6180740594260086,0.19194427132606506,0.4192069172859192,0.12565165758132935,0.5944288372993469,1.8843393325805664,0.4899895191192627,,,,,,,
5277048000.0,80.2,0.49000000953674316,12041169408.0,2202.8382188930077,216.0,0.0048493798822164536,888832.0,1198.4838209152222,1.1829079382685848e-14,0.0,2.325723886489868,-0.023257240653038025,0.053746722638607025,-0.023257238790392876,-1.862645149230957e-09,0.0,0.02739083208143711,0.3267556428909302,0.5739306989047543,0.24357837438583374,0.36151134967803955,0.2709692120552063,0.5005909204483032,1.859419345855713,0.48986005783081055,,,,,,,
5277048000.0,82.9,0.8899999856948853,12041169408.0,2203.0257832919096,217.0,0.0075651854276657104,892928.0,1200.3430819511414,1.3284512379030389e-14,0.0,2.33886456489563,-0.023388663306832314,0.03039657138288021,-0.02338864468038082,-1.862645149230957e-08,0.0,0.04196956008672714,0.24299407005310059,0.7266277543684049,0.1935824304819107,0.38040822744369507,0.23555201292037964,0.46474897861480713,1.8592610359191895,0.4900076389312744,,,,,,,
5277048000.0,79.66,1.0399999618530273,12041169408.0,2224.8215025584996,218.0,0.007287556305527687,897024.0,1202.184128522873,1.2866444021319978e-14,0.0,2.363736867904663,-0.023637374863028526,0.029859919100999832,-0.02363736741244793,-7.450580596923828e-09,0.0,0.02413787692785263,0.24321110546588898,0.7569445993985964,0.19394156336784363,0.4410017132759094,0.21807943284511566,0.49332231283187866,1.8410465717315674,0.49044346809387207,,,,,,,
5277048000.0,77.61,0.9900000095367432,12041169408.0,2157.1005414890938,219.0,0.007718460634350777,901120.0,1204.0829737186432,1.3782378016635732e-14,0.0,2.337209939956665,-0.023372098803520203,0.07332612574100494,-0.023372098803520203,9.313225746154785e-10,0.0,0.03178691491484642,0.3816770911216736,0.6676312426750125,0.19779644906520844,0.4950627386569977,0.22958336770534515,0.6620426774024963,1.8988451957702637,0.49037837982177734,,,,,,,
5277048000.0,82.54,1.0800000429153442,12041169408.0,2210.4744326705977,220.0,0.004432270303368568,905216.0,1205.9359695911407,1.4944642745540193e-14,0.0,2.330660820007324,-0.023306600749492645,0.07438205182552338,-0.023306608200073242,7.450580596923828e-09,0.0,-0.007066182792186737,0.3856818377971649,0.5606770656385521,0.29240891337394714,0.42174652218818665,0.2853427529335022,0.5818851590156555,1.8529958724975586,0.48983001708984375,,,,,,,
5277048000.0,96.58,1.0800000429153442,12041169408.0,2183.9726439452966,221.0,0.007439511362463236,909312.0,1207.811450958252,1.3848297508722851e-14,0.0,2.3921265602111816,-0.023921243846416473,0.038503166288137436,-0.023921264335513115,1.955777406692505e-08,0.0,0.04555640369653702,0.2737686038017273,0.7080551449772777,0.23288145661354065,0.43882372975349426,0.27843785285949707,0.5066794157028198,1.875481367111206,0.4900693893432617,,,,,,,
5277048000.0,96.16,1.100000023841858,12041169408.0,2178.6564085577465,222.0,0.008306048810482025,913408.0,1209.691508769989,1.3777173846207802e-14,0.0,2.363180637359619,-0.023631805554032326,0.05104808509349823,-0.023631805554032326,0.0,0.0,0.022125260904431343,0.31879690289497375,0.6756627357366505,0.3477695882320404,0.47824034094810486,0.3698948621749878,0.5597777962684631,1.8800578117370605,0.49002742767333984,,,,,,,
5277048000.0,89.55,1.2200000286102295,12041169408.0,2128.9205254780936,223.0,0.006305542774498463,917504.0,1211.6154885292053,1.5574347367319774e-14,0.0,2.3179752826690674,-0.02317974902689457,0.05524377524852753,-0.023179752752184868,3.725290298461914e-09,0.0,0.016613036394119263,0.3320218026638031,0.6632090616224255,0.2710667848587036,0.4689478576183319,0.28767985105514526,0.5721190571784973,1.9239797592163086,0.49005746841430664,,,,,,,
,,,,,,,,,,,,,,,,,,,,,,,,,,0.013399267569184303,0.08304431289434433,0.06718865036964417,0.013399267569184303,0.08304431289434433,0.06718865036964417,
,,,,,,,,,,,,,,,,,,,,,,,,,,0.007959241047501564,0.061729975044727325,0.055047038942575455,0.007959241047501564,0.061729975044727325,0.055047038942575455,
,,,,,,,,,,,,,,,,,,,,,,,,,,0.0070281862281262875,0.054541297256946564,0.047630175948143005,0.0070281862281262875,0.054541297256946564,0.047630175948143005,
,,,,,,,,,,,,,,,,,,,,,,,,,,0.007328165229409933,0.05090087652206421,0.043783824890851974,0.007328165229409933,0.05090087652206421,0.043783824890851974,
,,,,,,,,,,,,,,,,,,,,,,,,,,0.005944810342043638,0.04686644300818443,0.039627183228731155,0.005944810342043638,0.04686644300818443,0.039627183228731155,
,,,,,,,,,,,,,,,,,,,,,,,,,,0.005739366635680199,0.04379664361476898,0.03691013157367706,0.005739366635680199,0.04379664361476898,0.03691013157367706,
,,,,,,,,,,,,,,,,,,,,,,,,,,,,,,,,0.91
5277048000.0,88.61,1.2100000381469727,11990521856.0,30.45399002742291,224.0,0.010029846802353859,921600.0,1346.1134638786316,1.5491080640472887e-14,0.0,2.3363003730773926,-0.023363003507256508,0.07545726001262665,-0.023363003507256508,0.0,0.0,0.07307223230600357,0.38158944249153137,0.6844252128615319,0.30682438611984253,0.562289834022522,0.3798966407775879,0.6792743802070618,134.49797534942627,0.5103943347930908,,,,,,,
5277048000.0,96.89,1.3899999856948853,12041169408.0,2144.201411689057,225.0,0.00902914721518755,925696.0,1348.0237321853638,1.573914609753757e-14,0.0,2.3380775451660156,-0.023380760103464127,0.06262508779764175,-0.02338077500462532,1.4901161193847656e-08,0.0,0.04174697399139404,0.35147905349731445,0.6818886114806573,0.40613535046577454,0.5348138213157654,0.4478822946548462,0.6231746673583984,1.9102683067321777,0.4899568557739258,,,,,,,
5277048000.0,97.26,1.340000033378601,12041169408.0,2167.8391153332,226.0,0.005594533868134022,929792.0,1349.9131712913513,1.431146867680866e-14,0.0,2.373074531555176,-0.023730745539069176,0.05890614539384842,-0.023730745539069176,0.0,0.0,-0.017190206795930862,0.3428490459918976,0.6681186510031218,0.4936096668243408,0.511047899723053,0.47641950845718384,0.5951296091079712,1.8894391059875488,0.48984432220458984,,,,,,,
5277048000.0,94.86,1.1399999856948853,12041169408.0,2290.852041300723,227.0,0.0068890429101884365,933888.0,1351.7011523246765,1.4290651995096937e-14,0.0,2.3875269889831543,-0.023875270038843155,0.0874948501586914,-0.023875270038843155,-2.3283064365386963e-10,0.0,-0.03695902228355408,0.41673266887664795,0.6273199406820844,0.48159658908843994,0.555546760559082,0.44463759660720825,0.6826364994049072,1.7879810333251953,0.4902071952819824,,,,,,,
5277048000.0,96.74,1.3799999952316284,12041169408.0,2193.7445095634835,228.0,0.012202007696032524,937984.0,1353.568279504776,1.403391292065237e-14,0.0,2.429075241088867,-0.02429075911641121,0.05371297523379326,-0.024290751665830612,-6.51925802230835e-09,0.0,0.01624269410967827,0.3273962438106537,0.8330800328704253,0.6499807238578796,0.7333953380584717,0.666223406791687,0.8013450503349304,1.8671271800994873,0.4923546314239502,,,,,,,
5277048000.0,90.79,1.809999942779541,12041169408.0,2163.442824858273,229.0,0.013781649991869926,942080.0,1355.4615581035614,1.4070342113647882e-14,0.0,2.4371628761291504,-0.02437162771821022,0.056659214198589325,-0.02437162771821022,0.0,0.0,-0.028726857155561447,0.335440993309021,0.8079181469973576,0.7163115739822388,0.7123791575431824,0.6875847578048706,0.765372633934021,1.8932785987854004,0.4900846481323242,,,,,,,
5277048000.0,86.77,1.5199999809265137,12041169408.0,2207.4802004993207,230.0,0.009477417916059494,946176.0,1357.3170673847198,1.4861376018693306e-14,0.0,2.4222042560577393,-0.02422204613685608,0.07123909890651703,-0.02422204241156578,-3.725290298461914e-09,0.0,-0.011831250973045826,0.3773234486579895,0.7590638317361851,0.5878707766532898,0.6932460069656372,0.5760395526885986,0.7687104344367981,1.8555092811584473,0.48984193801879883,,,,,,,
5277048000.0,87.53,1.4800000190734863,12041169408.0,2170.1431982040476,231.0,0.00976916030049324,950272.0,1359.2045004367828,1.4474532683550478e-14,0.0,2.4237356185913086,-0.024237340316176414,0.05265137180685997,-0.02423735521733761,1.4901161193847656e-08,0.0,-0.014787829481065273,0.32420629262924194,0.7135423435192316,0.5896846055984497,0.5583056807518005,0.5748968124389648,0.6057470440864563,1.8874330520629883,0.49094295501708984,,,,,,,
5277048000.0,87.97,1.600000023841858,12041169408.0,2214.673806100609,232.0,0.010924939066171646,954368.0,1361.0539827346802,1.423514084386568e-14,0.0,2.3784899711608887,-0.023784900084137917,0.04828125983476639,-0.023784900084137917,0.0,0.0,0.007031263783574104,0.31070345640182495,0.7803421058511586,0.5493850111961365,0.6358134150505066,0.5564162731170654,0.6629377007484436,1.8494822978973389,0.4900951385498047,,,,,,,
5277048000.0,83.16,1.4600000381469727,12041169408.0,2177.1704557493704,233.0,0.009495618753135204,958464.0,1362.93532371521,1.4519635493925875e-14,0.0,2.410954713821411,-0.02410954236984253,0.04840464144945145,-0.024109546095132828,3.725290298461914e-09,0.0,-0.03490843251347542,0.3092151880264282,0.7918530053741933,0.5937594175338745,0.6136135458946228,0.5588510036468506,0.6777597069740295,1.8813409805297852,0.48987650871276855,,,,,,,
5277048000.0,77.32,1.190000057220459,12041169408.0,2245.2681637761775,234.0,0.0107946265488863,962560.0,1364.759604692459,1.4889131594308935e-14,0.0,2.4012179374694824,-0.024012185633182526,0.060446519404649734,-0.02401217818260193,-7.450580596923828e-09,0.0,0.0035380609333515167,0.3477212190628052,0.7544157683779434,0.5800989866256714,0.6349695324897766,0.583636999130249,0.7016667723655701,1.8242809772491455,0.4901702404022217,,,,,,,
5277048000.0,80.19,1.4199999570846558,12041169408.0,2148.0751742010957,235.0,0.011522607877850533,966656.0,1366.6664280891418,1.535924165629865e-14,0.0,2.414794921875,-0.024147940799593925,0.04932519420981407,-0.024147948250174522,7.450580596923828e-09,0.0,-0.0037833023816347122,0.3141021430492401,0.7321628273728256,0.5188663005828857,0.5513916015625,0.5150829553604126,0.6069256663322449,1.9068233966827393,0.49003028869628906,,,,,,,
5277048000.0,84.65,1.5399999618530273,12041169408.0,2161.5839301745195,236.0,0.009945415891706944,970752.0,1368.561334848404,1.5480672299617027e-14,0.0,2.404674530029297,-0.02404674142599106,0.05333578586578369,-0.024046745151281357,3.725290298461914e-09,0.0,0.0266302227973938,0.3255584239959717,0.7649072925921325,0.4717685282230377,0.5661797523498535,0.49839872121810913,0.6714432835578918,1.894906759262085,0.4898793697357178,,,,,,,
5277048000.0,88.28,1.8200000524520874,12041169408.0,2200.12493731261,237.0,0.01297031156718731,974848.0,1370.4230473041534,1.5378323614534395e-14,0.0,2.4201908111572266,-0.024201903492212296,0.04107673838734627,-0.024201907217502594,3.725290298461914e-09,0.0,0.007647375576198101,0.28655722737312317,0.8096977637449663,0.5830683708190918,0.558732271194458,0.590715765953064,0.6568850874900818,1.8617124557495117,0.49013543128967285,,,,,,,
5277048000.0,92.65,2.069999933242798,12041169408.0,2237.1380749215173,238.0,0.013977635651826859,978944.0,1372.2539579868317,1.8530316170384253e-14,0.0,2.3971002101898193,-0.023970995098352432,0.0543852224946022,-0.02397100068628788,5.587935447692871e-09,0.0,0.07586164772510529,0.3209993839263916,0.7024032879953054,0.5494836568832397,0.5218631029129028,0.6253452301025391,0.5884236097335815,1.8309106826782227,0.4900338649749756,,,,,,,
5277048000.0,91.92,2.2300000190734863,12041169408.0,2173.863756417091,239.0,0.01569654792547226,983040.0,1374.1381607055664,1.757101408816908e-14,0.0,2.3695616722106934,-0.023695606738328934,0.08607015758752823,-0.02369561605155468,8.381903171539307e-09,0.0,0.013547726906836033,0.4147273302078247,0.7441936008590767,0.614352822303772,0.6399019956588745,0.6279005408287048,0.8199869990348816,1.8842027187347412,0.4903240203857422,,,,,,,
5277048000.0,92.27,1.940000057220459,12041169408.0,2209.445332916305,240.0,0.010375363752245903,987136.0,1375.9920196533203,1.7949183805932023e-14,0.0,2.3979203701019287,-0.023979201912879944,0.052599549293518066,-0.023979203775525093,1.862645149230957e-09,0.0,-0.011484427377581596,0.3241803050041199,0.6328735115394772,0.5273997187614441,0.4799853563308716,0.5159152746200562,0.5350306630134583,1.8538589477539062,0.4901762008666992,,,,,,,
5277048000.0,89.08,1.6699999570846558,12041169408.0,2255.5827323980166,241.0,0.012681636959314346,991232.0,1377.8079583644867,1.9761969838327786e-14,0.0,2.3505325317382812,-0.023505326360464096,0.048568375408649445,-0.023505324497818947,-1.862645149230957e-09,0.0,0.012602722272276878,0.3114508092403412,0.7523836429931706,0.6464726328849792,0.5540022850036621,0.6590753197669983,0.6258925795555115,1.8159387111663818,0.490337610244751,,,,,,,
5277048000.0,92.5,2.1600000858306885,12041169408.0,2142.419771068608,242.0,0.015416443347930908,995328.0,1379.7198152542114,2.0941581801992015e-14,0.0,2.27131724357605,-0.022713175043463707,0.06393751502037048,-0.02271317131817341,-3.725290298461914e-09,0.0,0.01714453473687172,0.3572285771369934,0.7639095997430589,0.7565444111824036,0.6212584376335144,0.7736889123916626,0.7352025508880615,1.9118568897247314,0.490020751953125,,,,,,,
5277048000.0,94.57,2.2200000286102295,12041169408.0,2168.8610267097647,243.0,0.0073463162407279015,999424.0,1381.6083641052246,2.1429039098741498e-14,0.0,2.2607030868530273,-0.02260703593492508,0.09992850571870804,-0.02260703034698963,-5.587935447692871e-09,0.0,-0.04740586504340172,0.444587379693985,0.7307525716549028,0.5924627780914307,0.6431683897972107,0.545056939125061,0.8568037748336792,1.8885488510131836,0.4899630546569824,,,,,,,
5277048000.0,97.14,1.909999966621399,12041169408.0,2256.5417464715324,244.0,0.013828063383698463,1003520.0,1383.4235310554504,2.1690982343613996e-14,0.0,2.249873161315918,-0.0224987231194973,0.04761340469121933,-0.022498730570077896,6.51925802230835e-09,0.0,0.03256359323859215,0.3069029450416565,0.7764108236578562,0.7165601253509521,0.5648074150085449,0.7491236329078674,0.6490461826324463,1.81516695022583,0.489809513092041,,,,,,,
5277048000.0,104.54,1.9600000381469727,12041169408.0,2092.9362357390223,245.0,0.013246284797787666,1007616.0,1385.3805902004242,2.2941717969793274e-14,0.0,2.2080812454223633,-0.022080834954977036,0.09044522792100906,-0.022080812603235245,-2.2351741790771484e-08,0.0,0.029852280393242836,0.42431506514549255,0.7709452883013643,0.7353748083114624,0.7132750153541565,0.7652270793914795,0.8865817785263062,1.9570591449737549,0.49016404151916504,,,,,,,
5277048000.0,98.07,2.259999990463257,12041169408.0,2108.7001708698403,246.0,0.013101782649755478,1011712.0,1387.32301902771,2.3861121412060982e-14,0.0,2.17604398727417,-0.021760445088148117,0.058332931250333786,-0.02176043950021267,-5.587935447692871e-09,0.0,-0.025642456486821175,0.3406415283679962,0.7942331441164251,0.7972464561462402,0.6584416031837463,0.7716040015220642,0.7509480714797974,1.9424288272857666,0.4900801181793213,,,,,,,
5277048000.0,95.59,2.259999990463257,12041169408.0,2218.1053497028515,247.0,0.014965260401368141,1015808.0,1389.1696400642395,2.1142809725205325e-14,0.0,2.2507574558258057,-0.02250756323337555,0.06963351368904114,-0.022507574409246445,1.1175870895385742e-08,0.0,0.018244978040456772,0.37278419733047485,0.7951670656418053,0.7389708161354065,0.7837960124015808,0.7572158575057983,0.8236783742904663,1.846621036529541,0.49027109146118164,,,,,,,
5277048000.0,95.01,2.3499999046325684,12041169408.0,2147.518545176359,248.0,0.01553272269666195,1019904.0,1391.0769577026367,2.096586793065569e-14,0.0,2.223170757293701,-0.02223171852529049,0.06494435667991638,-0.022231707349419594,-1.1175870895385742e-08,0.0,-0.0157382320612669,0.36010095477104187,0.8243647423837215,0.9395155310630798,0.8125905990600586,0.9237773418426514,0.8592478036880493,1.9073176383972168,0.49019336700439453,,,,,,,
5277048000.0,100.07,2.430000066757202,12041169408.0,2028.716018925065,249.0,0.01164930872619152,1024000.0,1393.0959687232971,1.9619722513297688e-14,0.0,2.2713847160339355,-0.02271384745836258,0.08891232311725616,-0.02271384745836258,0.0,0.0,-0.025592437013983727,0.42096665501594543,0.7818295380760217,0.7957901358604431,0.7581517100334167,0.7701977491378784,0.9012593030929565,2.0190110206604004,0.4907352924346924,,,,,,,
5277048000.0,103.4,2.299999952316284,12041169408.0,2092.0824286753377,250.0,0.012508071959018707,1028096.0,1395.0538265705109,1.9883400481646163e-14,0.0,2.2804179191589355,-0.022804182022809982,0.12958568334579468,-0.022804178297519684,-3.725290298461914e-09,0.0,-0.05198562145233154,0.5064893960952759,0.6744510810499462,0.9741159677505493,0.7962883114814758,0.922130286693573,0.8876917958259583,1.9578578472137451,0.49007368087768555,,,,,,,
5277048000.0,102.92,1.9700000286102295,12041169408.0,2090.6254308144958,251.0,0.010631060227751732,1032192.0,1397.0130488872528,2.1932108906774772e-14,0.0,2.1928915977478027,-0.021928921341896057,0.10274873673915863,-0.02192891575396061,-4.6566128730773926e-09,0.0,-0.046744875609874725,0.4509568214416504,0.7880111286654937,0.8586031794548035,0.8186934590339661,0.8118583559989929,0.979441225528717,1.9592223167419434,0.4900197982788086,,,,,,,
5277048000.0,96.83,2.0899999141693115,12041169408.0,2154.4133184387583,252.0,0.01465180329978466,1036288.0,1398.9142625331879,2.0842702563861337e-14,0.0,2.2332916259765625,-0.022332914173603058,0.07344017922878265,-0.022332916036248207,9.313225746154785e-10,0.0,-0.03387279063463211,0.3817965090274811,0.762179598115746,0.7413261532783508,0.7521181106567383,0.7074533700942993,0.7829020023345947,1.9012136459350586,0.49008846282958984,,,,,,,
5277048000.0,97.05,1.9299999475479126,12041169408.0,2204.9977056554644,253.0,0.00861675851047039,1040384.0,1400.7718608379364,1.9437576548320123e-14,0.0,2.3058955669403076,-0.023058956488966942,0.13348165154457092,-0.023058954626321793,-1.862645149230957e-09,0.0,-0.024810001254081726,0.5161519050598145,0.6671683562048272,0.6594783067703247,0.6618892550468445,0.6346682906150818,0.8946748971939087,1.8575983047485352,0.49016571044921875,,,,,,,
5277048000.0,97.44,1.8200000524520874,12041169408.0,2258.09235010845,254.0,0.011057231575250626,1044480.0,1402.5857813358307,1.9019508190609713e-14,0.0,2.3138647079467773,-0.02313864976167679,0.06321907043457031,-0.02313864603638649,-2.7939677238464355e-09,0.0,0.045178256928920746,0.3527427613735199,0.7867661426433128,0.5082013607025146,0.6405162215232849,0.5533796548843384,0.7638885378837585,1.813920497894287,0.4900624752044678,,,,,,,
5277048000.0,101.97,2.180000066757202,12041169408.0,2204.9312011306583,255.0,0.01579018123447895,1048576.0,1404.4434356689453,2.1323220966706913e-14,0.0,2.2681150436401367,-0.022681131958961487,0.056122396141290665,-0.02268115058541298,1.862645149230957e-08,0.0,0.06488694250583649,0.3287261128425598,0.7757803473609832,0.6379834413528442,0.597091019153595,0.7028703689575195,0.6942204236984253,1.857654333114624,0.4899942874908447,,,,,,,
,,,,,,,,,,,,,,,,,,,,,,,,,,0.02352108061313629,0.09442999958992004,0.07681873440742493,0.02352108061313629,0.09442999958992004,0.07681873440742493,
,,,,,,,,,,,,,,,,,,,,,,,,,,0.011650494299829006,0.07087813317775726,0.06328199803829193,0.011650494299829006,0.07087813317775726,0.06328199803829193,
