CpuMaxMemory,EpLenMean,EpRewMean,GpuMaxMemory,IPS_total,Iter,Misc/FrameRewMean,Misc/InteractCount,Misc/TimeElapsed,Opt/approxkl,Opt/clipfrac,Opt/entropy,Opt/loss_pi,Opt/loss_vf,Opt/negent,Opt/pg,Opt/pi_kl,VFStats/AdvMean,VFStats/AdvStd,VFStats/EV,VFStats/VpredMean,VFStats/VpredStd,VFStats/VtargMean,VFStats/VtargStd,del_time,wait_optimization,scaled/pol_distance,scaled/vf_aux,scaled/vf_true,unscaled/pol_distance,unscaled/vf_aux,unscaled/vf_true,EvalEpMean
3029640000.0,78.4,-2.5999999046325684,11965495808.0,1668.5421738900297,0.0,-0.01617669127881527,4096.0,2.4548375606536865,3.740063814205996e-15,0.0,2.707066774368286,-0.027070647105574608,0.22190788388252258,-0.02707066759467125,2.0489096641540527e-08,0.0,-0.26386043429374695,0.6117882132530212,0.002464585992782875,-0.031225237995386124,0.011774223297834396,-0.29508569836616516,0.6125435829162598,2.4548375606536865,1.0250093936920166,,,,,,,
3080532000.0,78.18947368421053,-2.48421049118042,12031147008.0,1824.635785267409,1.0,-0.01755012571811676,8192.0,4.699669122695923,5.218048215738236e-15,0.0,2.6982388496398926,-0.026982365176081657,0.19845959544181824,-0.026982387527823448,2.2351741790771484e-08,0.0,-0.16500630974769592,0.6080973148345947,0.016820255096709924,-0.3888557553291321,0.07122065871953964,-0.5538620948791504,0.6132769584655762,2.2448315620422363,0.997035026550293,,,,,,,
3129636000.0,77.57,-2.559999942779541,12031147008.0,1754.89051095487,2.0,-0.014929354190826416,12288.0,7.03371787071228,6.5503158452884236e-15,0.0,2.681705951690674,-0.02681705169379711,0.2033901810646057,-0.02681705914437771,7.450580596923828e-09,0.0,0.002073928713798523,0.6378678679466248,0.02393540749219425,-0.8656406998634338,0.1532883197069168,-0.8635667562484741,0.6456415057182312,2.3340487480163574,0.9970903396606445,,,,,,,
3178996000.0,75.27,-2.690000057220459,12031147008.0,1808.9271110540187,3.0,-0.015518469735980034,16384.0,9.298043489456177,6.3629657098829284e-15,0.0,2.667956829071045,-0.026679569855332375,0.28646060824394226,-0.026679567992687225,-1.862645149230957e-09,0.0,0.14821171760559082,0.7423536777496338,0.07930245291333504,-1.3739540576934814,0.25851988792419434,-1.2257423400878906,0.7736639976501465,2.2643256187438965,0.9967086315155029,,,,,,,
3228364000.0,75.21,-2.2300000190734863,12031147008.0,1787.4644087427444,4.0,-0.012866435572504997,20480.0,11.589557647705078,8.007483565108942e-15,0.0,2.6335792541503906,-0.02633580006659031,0.21977102756500244,-0.026335792616009712,-7.450580596923828e-09,0.0,0.0709400549530983,0.6592538356781006,0.0765833950999465,-1.1079013347625732,0.20337751507759094,-1.0369611978530884,0.6860468983650208,2.2915141582489014,0.9970602989196777,,,,,,,
3277992000.0,78.9,-1.9500000476837158,12031147008.0,1754.2980818166743,5.0,-0.014272838830947876,24576.0,13.924394607543945,7.589415207398531e-15,0.0,2.548522472381592,-0.025485225021839142,0.1928478181362152,-0.025485225021839142,0.0,0.0,0.0005419920198619366,0.6211195588111877,0.1284981049982553,-0.8436299562454224,0.17908012866973877,-0.843087911605835,0.665336012840271,2.334836959838867,0.997067928314209,,,,,,,
3327624000.0,74.79,-2.109999895095825,12031147008.0,1820.3425982907722,6.0,-0.014648932963609695,28672.0,16.17452049255371,7.086345399365257e-15,0.0,2.515465259552002,-0.02515465021133423,0.16573800146579742,-0.025154652073979378,1.862645149230957e-09,0.0,0.0024219248443841934,0.5758047103881836,0.12719361393022433,-0.6859091520309448,0.15407060086727142,-0.6834872364997864,0.6163341999053955,2.2501258850097656,0.9969305992126465,,,,,,,
3376992000.0,70.03,-2.200000047683716,12031147008.0,1822.6434710355559,7.0,-0.016398176550865173,32768.0,18.42180585861206,6.617970060851519e-15,0.0,2.4748215675354004,-0.024748217314481735,0.2164543867111206,-0.024748215451836586,-9.313225746154785e-10,0.0,-0.08002211153507233,0.6531534194946289,0.09331254203810702,-0.6210689544677734,0.14084386825561523,-0.7010909914970398,0.6859403848648071,2.2472853660583496,0.9968864917755127,,,,,,,
3426624000.0,71.19,-1.6799999475479126,12031147008.0,1796.5887543563426,8.0,-0.01156824454665184,36864.0,20.701682090759277,7.24247051220317e-15,0.0,2.3596696853637695,-0.02359669655561447,0.15760716795921326,-0.02359669655561447,0.0,0.0,0.01348338183015585,0.5613461136817932,0.11632789811885369,-0.591694712638855,0.16760283708572388,-0.5782113075256348,0.5971522927284241,2.279876232147217,0.9972071647644043,,,,,,,
3476256000.0,72.76,-1.7899999618530273,12031147008.0,1782.1716522381932,9.0,-0.013962874189019203,40960.0,23.000001668930054,7.726458362000699e-15,0.0,2.2878808975219727,-0.022878816351294518,0.180841326713562,-0.02287880890071392,-7.450580596923828e-09,0.0,-0.030914340168237686,0.6006788015365601,0.11356446413014165,-0.5740206241607666,0.19063369929790497,-0.6049349308013916,0.6379970908164978,2.2983195781707764,0.9969749450683594,,,,,,,
3525624000.0,72.25,-1.9500000476837158,12031147008.0,1753.7227012557587,10.0,-0.01616216078400612,45056.0,25.335604667663574,8.238201787413857e-15,0.0,2.135617733001709,-0.02135618031024933,0.18947938084602356,-0.02135617658495903,-3.725290298461914e-09,0.0,-0.06680878251791,0.6120349764823914,0.10879949180064152,-0.5884356498718262,0.21929115056991577,-0.6552444696426392,0.6483185887336731,2.3356029987335205,0.9970526695251465,,,,,,,
3575256000.0,72.93,-1.7699999809265137,12031147008.0,1774.899240021204,11.0,-0.010824792087078094,49152.0,27.643341302871704,1.2328679743767168e-14,0.0,1.8529490232467651,-0.018529489636421204,0.1514674872159958,-0.018529489636421204,0.0,0.0,0.03898293897509575,0.5490800738334656,0.16377823193102847,-0.7147876024246216,0.2918563187122345,-0.6758046746253967,0.6004474759101868,2.30773663520813,0.996929407119751,,,,,,,
3624624000.0,73.49,-1.309999942779541,12031147008.0,1812.8965869693109,12.0,-0.007887417450547218,53248.0,29.902709007263184,1.4389531233227615e-14,0.0,1.6760132312774658,-0.01676013134419918,0.14366038143634796,-0.01676013134419918,0.0,0.0,0.0811675637960434,0.529906690120697,0.25661181291418333,-0.7956910729408264,0.27839577198028564,-0.7145234942436218,0.6145986318588257,2.2593677043914795,0.9970555305480957,,,,,,,
3674256000.0,73.2,-1.5499999523162842,12031147008.0,1760.6829517756746,13.0,-0.0160696841776371,57344.0,32.22907900810242,1.4205650544774073e-14,0.0,1.589228868484497,-0.015892280265688896,0.23268625140190125,-0.015892287716269493,7.450580596923828e-09,0.0,-0.05962395668029785,0.6796545386314392,0.19900540553251822,-0.702284574508667,0.27681171894073486,-0.7619085311889648,0.7594048976898193,2.3263700008392334,0.996985673904419,,,,,,,
3723888000.0,81.82,-1.9199999570846558,12031147008.0,1820.037513822538,14.0,-0.013955138623714447,61440.0,34.47958207130432,1.1112638587107426e-14,0.0,1.706068754196167,-0.017060687765479088,0.1845848113298416,-0.017060687765479088,0.0,0.0,-0.015492278151214123,0.6074699759483337,0.2753770984924674,-0.6757732629776001,0.3321174085140228,-0.6912655234336853,0.7136229276657104,2.2505030632019043,0.996981143951416,,,,,,,
3773256000.0,83.04,-2.0999999046325684,12031147008.0,1792.0225375148902,15.0,-0.011929791420698166,65536.0,36.76526761054993,1.0385789450673144e-14,0.0,1.7967674732208252,-0.017967667430639267,0.1895800679922104,-0.017967674881219864,6.51925802230835e-09,0.0,0.006757217459380627,0.6157979369163513,0.2144152878946346,-0.6832320690155029,0.35765644907951355,-0.6764748096466064,0.6947709918022156,2.2856855392456055,0.9968423843383789,,,,,,,
3822888000.0,80.08,-1.8700000047683716,12031147008.0,1778.9458789390153,16.0,-0.006932273507118225,69632.0,39.0677547454834,7.844419558367122e-15,0.0,1.9904828071594238,-0.019904835149645805,0.14190641045570374,-0.01990482769906521,-7.450580596923828e-09,0.0,0.04761986434459686,0.5306730270385742,0.3387559754995353,-0.6728310585021973,0.3682470917701721,-0.6252111792564392,0.6525986790657043,2.3024871349334717,0.9972219467163086,,,,,,,
3872256000.0,87.82,-1.649999976158142,12031147008.0,1776.098921399374,17.0,-0.016515817493200302,73728.0,41.37393260002136,7.178285743592028e-15,0.0,2.1813204288482666,-0.02181321382522583,0.23074327409267426,-0.021813204512000084,-9.313225746154785e-09,0.0,-0.0641150027513504,0.6763782501220703,0.22429151973722317,-0.7091912031173706,0.34888970851898193,-0.7733062505722046,0.7679631114006042,2.306177854537964,0.9969699382781982,,,,,,,
3921888000.0,84.66,-1.6799999475479126,12031147008.0,1749.075689332471,18.0,-0.007765167858451605,77824.0,43.71574091911316,5.972652927788147e-15,0.0,2.322967529296875,-0.023229673504829407,0.14217469096183777,-0.023229675367474556,1.862645149230957e-09,0.0,0.03983498737215996,0.5318191647529602,0.4326416685712554,-0.697056770324707,0.420123815536499,-0.657221794128418,0.7060496807098389,2.341808319091797,0.9968166351318359,,,,,,,
3971256000.0,85.46,-1.850000023841858,12031147008.0,1750.946918284479,19.0,-0.013567186892032623,81920.0,46.05504655838013,5.729791641151394e-15,0.0,2.430630922317505,-0.02430630289018154,0.20179970562458038,-0.02430630847811699,5.587935447692871e-09,0.0,-0.003968831151723862,0.6353598833084106,0.3538354101478828,-0.7365705966949463,0.4863167107105255,-0.7405394315719604,0.7904022932052612,2.3393056392669678,0.9969255924224854,,,,,,,
4020888000.0,95.55,-2.4700000286102295,12031147008.0,1821.441131804216,20.0,-0.015531694516539574,86016.0,48.30381536483765,5.5441762292218755e-15,0.0,2.4702987670898438,-0.024702994152903557,0.19233067333698273,-0.02470298670232296,-7.450580596923828e-09,0.0,-0.06708545237779617,0.6166471838951111,0.4527901662581919,-0.7927097678184509,0.49353110790252686,-0.8597952127456665,0.8336039781570435,2.2487688064575195,0.9972226619720459,,,,,,,
4070520000.0,87.0,-2.299999952316284,12031147008.0,1763.59489321444,21.0,-0.013305485248565674,90112.0,50.626344203948975,5.299580219109146e-15,0.0,2.526463508605957,-0.025264644995331764,0.2214859426021576,-0.02526463381946087,-1.1175870895385742e-08,0.0,0.059958942234516144,0.6629359126091003,0.40791886764605145,-0.9215768575668335,0.5652397871017456,-0.861617922782898,0.8615509867668152,2.322528839111328,0.996915340423584,,,,,,,
4119888000.0,75.79,-2.140000104904175,12031147008.0,1794.8326795760486,22.0,-0.02079932764172554,94208.0,52.908451080322266,4.7531423241764514e-15,0.0,2.563936233520508,-0.025639360770583153,0.27739495038986206,-0.025639362633228302,1.862645149230957e-09,0.0,-0.022541407495737076,0.7445919513702393,0.3810836566886696,-0.9256287813186646,0.5578876733779907,-0.9481701850891113,0.9464601874351501,2.282106876373291,0.9968557357788086,,,,,,,
4169520000.0,82.71,-2.799999952316284,12031147008.0,1765.2395569564326,23.0,-0.01612311601638794,98304.0,55.22881603240967,5.396724733763847e-15,0.0,2.5658798217773438,-0.02565879188477993,0.2670861482620239,-0.025658797472715378,5.587935447692871e-09,0.0,0.01043147686868906,0.7308856844902039,0.4841711597874052,-1.058443546295166,0.6564592123031616,-1.0480122566223145,1.0176458358764648,2.3203649520874023,0.9969236850738525,,,,,,,
4218888000.0,82.35,-2.4800000190734863,12031147008.0,1804.515038562612,24.0,-0.012222854420542717,102400.0,57.49867796897888,5.6794846603480664e-15,0.0,2.586989402770996,-0.02586990036070347,0.25401997566223145,-0.02586989291012287,-7.450580596923828e-09,0.0,0.09614327549934387,0.7063414454460144,0.47405680063154854,-1.162313461303711,0.7379962801933289,-1.0661702156066895,0.9739691615104675,2.269861936569214,0.9967401027679443,,,,,,,
4268520000.0,81.8,-1.7400000095367432,12031147008.0,1751.3487102513195,25.0,-0.01056062150746584,106496.0,59.83744692802429,5.594483210025203e-15,0.0,2.615100383758545,-0.026151005178689957,0.191246896982193,-0.026151003316044807,-1.862645149230957e-09,0.0,0.026599213480949402,0.6179640293121338,0.48399712703655284,-0.7702794075012207,0.6389173269271851,-0.7436802387237549,0.8602746725082397,2.33876895904541,0.9969964027404785,,,,,,,
4318152000.0,85.07,-1.9299999475479126,12031147008.0,1769.9817245419724,26.0,-0.013966910541057587,110592.0,62.15159511566162,5.695097171631858e-15,0.0,2.6263837814331055,-0.026263833045959473,0.1986916959285736,-0.02626383677124977,2.7939677238464355e-09,0.0,-0.0505252331495285,0.6284322142601013,0.4069361174209185,-0.5819811224937439,0.5686675310134888,-0.6325063705444336,0.8160330057144165,2.314148187637329,0.9968242645263672,,,,,,,
4367520000.0,80.31,-1.940000057220459,12031147008.0,1801.1705584164004,27.0,-0.012794754467904568,114688.0,64.42567181587219,5.608360997833017e-15,0.0,2.634775161743164,-0.02634773589670658,0.1926966905593872,-0.026347750797867775,1.4901161193847656e-08,0.0,-0.09069909155368805,0.614214301109314,0.39477389702554366,-0.49399763345718384,0.4781017005443573,-0.5846967697143555,0.789516270160675,2.2740767002105713,0.9968228340148926,,,,,,,
4417152000.0,82.64,-2.259999990463257,12031147008.0,1767.3662476769707,28.0,-0.016534097492694855,118784.0,66.74324464797974,5.065392549852277e-15,0.0,2.640439987182617,-0.026404403150081635,0.21153953671455383,-0.026404399424791336,-3.725290298461914e-09,0.0,-0.10662257671356201,0.6417251825332642,0.31612667086359736,-0.4632928967475891,0.4329833388328552,-0.5699154734611511,0.7759992480278015,2.317572832107544,0.9968907833099365,,,,,,,
4466520000.0,94.57,-2.380000114440918,12031147008.0,1738.3960355364045,29.0,-0.011342683807015419,122880.0,69.09943962097168,4.385380947269368e-15,0.0,2.647279739379883,-0.026472801342606544,0.170127272605896,-0.026472797617316246,-3.725290298461914e-09,0.0,-0.054915107786655426,0.5807936191558838,0.3517503074869729,-0.4684019386768341,0.4198421239852905,-0.5233170390129089,0.7213577032089233,2.3561949729919434,0.9970052242279053,,,,,,,
4516152000.0,89.57,-2.640000104904175,12031147008.0,1805.8843670190445,30.0,-0.021553929895162582,126976.0,71.36758041381836,4.565792188770956e-15,0.0,2.651589870452881,-0.026515889912843704,0.26141875982284546,-0.0265158973634243,7.450580596923828e-09,0.0,-0.14128731191158295,0.7092236876487732,0.3796150921369823,-0.6513298153877258,0.4676976799964905,-0.7926170825958252,0.9004355072975159,2.2681407928466797,0.9968523979187012,,,,,,,
4565520000.0,84.59,-2.5199999809265137,12031147008.0,1752.9781145444213,31.0,-0.009710321202874184,131072.0,73.70417547225952,4.794775687599895e-15,0.0,2.650545597076416,-0.026505453512072563,0.167037695646286,-0.026505455374717712,1.862645149230957e-09,0.0,0.0860537737607956,0.5716204643249512,0.45942451740246004,-0.9045462608337402,0.5832268595695496,-0.8184925317764282,0.7774627804756165,2.336595058441162,0.9969158172607422,,,,,,,
,,,,,,,,,,,,,,,,,,,,,,,,,,0.00390534196048975,0.241821750998497,0.2290370762348175,0.00390534196048975,0.241821750998497,0.2290370762348175,
,,,,,,,,,,,,,,,,,,,,,,,,,,0.00043374672532081604,0.19424621760845184,0.17926868796348572,0.00043374672532081604,0.19424621760845184,0.17926868796348572,
,,,,,,,,,,,,,,,,,,,,,,,,,,0.0006734823691658676,0.17943474650382996,0.17154951393604279,0.0006734823691658676,0.17943474650382996,0.17154951393604279,
,,,,,,,,,,,,,,,,,,,,,,,,,,0.0005323556251823902,0.16512693464756012,0.1620766967535019,0.0005323556251823902,0.16512693464756012,0.1620766967535019,
,,,,,,,,,,,,,,,,,,,,,,,,,,0.00037725563743151724,0.15855446457862854,0.15860818326473236,0.00037725563743151724,0.15855446457862854,0.15860818326473236,
,,,,,,,,,,,,,,,,,,,,,,,,,,0.0008771935827098787,0.16221384704113007,0.16020455956459045,0.0008771935827098787,0.16221384704113007,0.16020455956459045,
,,,,,,,,,,,,,,,,,,,,,,,,,,,,,,,,-2.41
4585280000.0,80.99,-1.9800000190734863,11990518784.0,17.03828074726291,32.0,-0.014701022766530514,135168.0,314.104017496109,4.503342143635791e-15,0.0,2.6497297286987305,-0.02649729698896408,0.16082188487052917,-0.02649729698896408,0.0,0.0,-0.025533277541399002,0.5666306018829346,0.494715801261848,-0.5701867938041687,0.4533909857273102,-0.5957200527191162,0.7971355319023132,240.3998420238495,0.9974570274353027,,,,,,,
4585280000.0,82.12,-1.7899999618530273,12041169408.0,1829.8399084519224,33.0,-0.009706356562674046,139264.0,316.34246468544006,4.218847493575595e-15,0.0,2.641368865966797,-0.026413695886731148,0.11684966087341309,-0.02641368843615055,-7.450580596923828e-09,0.0,0.00019882433116436005,0.48348358273506165,0.6095357769488862,-0.5526032447814941,0.5053505301475525,-0.5524044036865234,0.7737329006195068,2.2384471893310547,0.9969210624694824,,,,,,,
4585280000.0,80.14,-1.5399999618530273,12041169408.0,1823.64450422817,34.0,-0.012054923921823502,143360.0,318.58851647377014,4.6629367034256575e-15,0.0,2.6303842067718506,-0.026303835213184357,0.12834303081035614,-0.026303840801119804,4.6566128730773926e-09,0.0,0.0942276269197464,0.49786317348480225,0.5809825878137584,-0.7549233436584473,0.5586649775505066,-0.6606956720352173,0.7691196799278259,2.246051788330078,0.9968743324279785,,,,,,,
4585280000.0,72.59,-1.7000000476837158,12041169408.0,1775.570810468465,35.0,-0.01388208195567131,147456.0,320.8953802585602,4.937023012629993e-15,0.0,2.6214616298675537,-0.026214614510536194,0.12730619311332703,-0.026214616373181343,9.313225746154785e-10,0.0,0.02811618521809578,0.5038688778877258,0.6584183525001779,-0.7696906328201294,0.5693680047988892,-0.7415745258331299,0.862125039100647,2.306863784790039,0.9973728656768799,,,,,,,
4585280000.0,72.89,-1.850000023841858,12041169408.0,1791.9201085423715,36.0,-0.011045023798942566,151552.0,323.18119645118713,5.329070518200751e-15,0.0,2.618649959564209,-0.02618648298084736,0.12910640239715576,-0.026186499744653702,1.6763806343078613e-08,0.0,0.06547270715236664,0.5039723515510559,0.6708854820507264,-0.7021152973175049,0.6292086243629456,-0.6366426348686218,0.8784825801849365,2.285816192626953,0.9969749450683594,,,,,,,
4585280000.0,79.76,-2.2200000286102295,12041169408.0,1794.9487567482176,37.0,-0.018188606947660446,155648.0,325.46315574645996,4.595282487862562e-15,0.0,2.5957000255584717,-0.025956982746720314,0.13503596186637878,-0.025956999510526657,1.6763806343078613e-08,0.0,-0.019873881712555885,0.5193676948547363,0.7302836599852989,-0.8508411645889282,0.7042160630226135,-0.8707151412963867,1.000049114227295,2.281959295272827,0.9969420433044434,,,,,,,
4585280000.0,76.79,-2.180000066757202,12041169408.0,1816.4714597700845,38.0,-0.010797887109220028,159744.0,327.7180769443512,4.930084118726086e-15,0.0,2.5848031044006348,-0.02584804594516754,0.10988163203001022,-0.025848031044006348,-1.4435499906539917e-08,0.0,0.09146839380264282,0.4598352015018463,0.712097924444943,-0.8077000975608826,0.6822389960289001,-0.716231644153595,0.8569980263710022,2.2549211978912354,0.9970917701721191,,,,,,,
4585280000.0,72.42,-1.9900000095367432,12041169408.0,1821.8875242067386,39.0,-0.018727660179138184,163840.0,329.9662947654724,5.918876500032866e-15,0.0,2.591264247894287,-0.025912638753652573,0.1450609266757965,-0.02591264247894287,3.725290298461914e-09,0.0,0.07683590054512024,0.5331862568855286,0.7031624945226818,-0.9810091257095337,0.780580461025238,-0.9041732549667358,0.9786322116851807,2.248217821121216,0.9971868991851807,,,,,,,
4585280000.0,78.57,-2.3299999237060547,12041169408.0,1824.2798615278216,40.0,-0.012819003313779831,167936.0,332.21156430244446,4.539771336631304e-15,0.0,2.574885606765747,-0.025748878717422485,0.1452948898077011,-0.025748856365680695,-2.2351741790771484e-08,0.0,0.08594883978366852,0.5322328209877014,0.6796099771086024,-0.805213451385498,0.7801268696784973,-0.7192646265029907,0.940290629863739,2.245269536972046,0.997338056564331,,,,,,,
4585280000.0,75.85,-2.1600000858306885,12041169408.0,1788.8485770840296,41.0,-0.015044324100017548,172032.0,334.5013053417206,4.9509008004378074e-15,0.0,2.5802388191223145,-0.02580239623785019,0.1399250328540802,-0.025802386924624443,-9.313225746154785e-09,0.0,0.10586298257112503,0.5183711647987366,0.7075087487062788,-0.8351344466209412,0.8181266188621521,-0.7292715311050415,0.9584830403327942,2.289741039276123,0.9971826076507568,,,,,,,
4585280000.0,76.39,-1.8799999952316284,12041169408.0,1803.3022288271497,42.0,-0.010901353321969509,176128.0,336.7726938724518,4.73232564246473e-15,0.0,2.56738543510437,-0.025673851370811462,0.11755865067243576,-0.02567385323345661,1.862645149230957e-09,0.0,0.04492614045739174,0.4828621745109558,0.6778794080364072,-0.5345097780227661,0.7368164658546448,-0.4895836114883423,0.8507734537124634,2.271388530731201,0.9969778060913086,,,,,,,
4585280000.0,80.67,-1.6699999570846558,12041169408.0,1783.0004643308976,43.0,-0.011451903730630875,180224.0,339.0699450969696,4.975186929101483e-15,0.0,2.583019495010376,-0.02583019994199276,0.10356698930263519,-0.025830194354057312,-5.587935447692871e-09,0.0,0.07254505157470703,0.4493556320667267,0.681941346429575,-0.45010459423065186,0.6992547512054443,-0.3775595426559448,0.7967765927314758,2.2972512245178223,0.9970724582672119,,,,,,,
4585280000.0,76.79,-1.5299999713897705,12041169408.0,1779.5652134821219,44.0,-0.010168401524424553,184320.0,341.3716309070587,5.02028973947688e-15,0.0,2.587786912918091,-0.025877872481942177,0.1160026490688324,-0.02587786875665188,-3.725290298461914e-09,0.0,0.017423994839191437,0.481412798166275,0.5804958701019363,-0.35523414611816406,0.6345198154449463,-0.3378101587295532,0.743274986743927,2.3016858100891113,0.9969873428344727,,,,,,,
4585280000.0,73.45,-1.4500000476837158,12041169408.0,1727.7829292741053,45.0,-0.011604152619838715,188416.0,343.742299079895,5.290906601729262e-15,0.0,2.586535930633545,-0.025865359231829643,0.10398726165294647,-0.025865359231829643,0.0,0.0,-0.03382439166307449,0.454841673374176,0.5348066475236319,-0.17307165265083313,0.4804326593875885,-0.20689603686332703,0.666873574256897,2.3706681728363037,0.9970865249633789,,,,,,,
4585280000.0,72.32,-1.3600000143051147,12041169408.0,1751.6379860781444,46.0,-0.008111735805869102,192512.0,346.0806818008423,5.459174778899012e-15,0.0,2.586244583129883,-0.025862449780106544,0.12306363135576248,-0.025862446054816246,-3.725290298461914e-09,0.0,-0.047811612486839294,0.49386319518089294,0.34937399140931047,-0.10783465951681137,0.4154810607433319,-0.15564626455307007,0.6122671365737915,2.3383827209472656,0.9973609447479248,,,,,,,
4585280000.0,75.2,-1.4900000095367432,12041169408.0,1822.8710930657053,47.0,-0.009824128821492195,196608.0,348.32768654823303,5.223252386166166e-15,0.0,2.5881102085113525,-0.02588111348450184,0.12704366445541382,-0.025881102308630943,-1.1175870895385742e-08,0.0,-0.07297942042350769,0.4988206624984741,0.39431530713310825,-0.061807163059711456,0.4234929084777832,-0.13478657603263855,0.6409456133842468,2.247004747390747,0.9971096515655518,,,,,,,
4585280000.0,73.2,-1.9600000381469727,12041169408.0,1843.2501429656297,48.0,-0.017567303031682968,200704.0,350.5498483181,4.475586568020162e-15,0.0,2.5927577018737793,-0.0259275920689106,0.15279212594032288,-0.025927577167749405,-1.4901161193847656e-08,0.0,-0.17553676664829254,0.5242500901222229,0.4458645958200621,-0.021724004298448563,0.393722265958786,-0.1972607672214508,0.704255998134613,2.2221617698669434,0.9970579147338867,,,,,,,
4585280000.0,72.55,-2.059999942779541,12041169408.0,1777.3798432417668,49.0,-0.013264531269669533,204800.0,352.854364156723,5.587544316121296e-15,0.0,2.6014318466186523,-0.026014333590865135,0.12857073545455933,-0.02601431868970394,-1.4901161193847656e-08,0.0,-0.12114143371582031,0.4924687147140503,0.43044090910805266,-0.07481532543897629,0.40657997131347656,-0.195956751704216,0.6525431275367737,2.304515838623047,0.997046709060669,,,,,,,
4585280000.0,75.2,-1.8600000143051147,12041169408.0,1820.5223798795776,50.0,-0.013936048373579979,208896.0,355.10426783561707,4.9682480351975755e-15,0.0,2.6136677265167236,-0.02613668330013752,0.13483576476573944,-0.026136675849556923,-7.450580596923828e-09,0.0,-0.09776157140731812,0.5100762248039246,0.4881131747106835,-0.1939934492111206,0.45917707681655884,-0.2917550206184387,0.7129319310188293,2.249903678894043,0.9975032806396484,,,,,,,
4585280000.0,75.27,-1.7400000095367432,12041169408.0,1807.6568195267143,51.0,-0.012088504619896412,212992.0,357.3701846599579,5.348152476436496e-15,0.0,2.6124134063720703,-0.02612413465976715,0.13382714986801147,-0.026124132797122,-1.862645149230957e-09,0.0,-0.02518499083817005,0.5168029069900513,0.5660196673706798,-0.32412368059158325,0.5895988345146179,-0.34930869936943054,0.7844945192337036,2.2659168243408203,0.9969310760498047,,,,,,,
4585280000.0,71.61,-1.850000023841858,12041169408.0,1816.719827522394,52.0,-0.015647854655981064,217088.0,359.62479758262634,5.1035564663237665e-15,0.0,2.613694667816162,-0.026136944070458412,0.13086572289466858,-0.02613694593310356,1.862645149230957e-09,0.0,-0.024476569145917892,0.5110734701156616,0.5640592841371429,-0.37182217836380005,0.6189739108085632,-0.39629876613616943,0.7740511298179626,2.254612922668457,0.9970347881317139,,,,,,,
4585280000.0,72.89,-1.4700000286102295,12041169408.0,1801.0650040550481,53.0,-0.0085684135556221,221184.0,361.89900755882263,5.0497800385684855e-15,0.0,2.6103336811065674,-0.026103347539901733,0.10712186992168427,-0.026103336364030838,-1.1175870895385742e-08,0.0,0.06933504343032837,0.45769810676574707,0.6580840958010665,-0.4166151285171509,0.6922370195388794,-0.3472800850868225,0.7827435731887817,2.274209976196289,0.9968833923339844,,,,,,,
4585280000.0,71.54,-1.7999999523162842,12041169408.0,1763.3110660415316,54.0,-0.016488414257764816,225280.0,364.221910238266,5.384581669432009e-15,0.0,2.601264476776123,-0.026012636721134186,0.12776722013950348,-0.026012644171714783,7.450580596923828e-09,0.0,-0.05422654002904892,0.5026485919952393,0.6511660611631691,-0.44521909952163696,0.6697018146514893,-0.4994456171989441,0.8510500192642212,2.3229026794433594,0.9971668720245361,,,,,,,
4585280000.0,72.97,-2.009999990463257,12041169408.0,1749.9427988439695,55.0,-0.01491889264434576,229376.0,366.5625581741333,5.936223734792634e-15,0.0,2.5755786895751953,-0.02575579099357128,0.12338956445455551,-0.025755785405635834,-5.587935447692871e-09,0.0,-0.00577878812327981,0.4967957139015198,0.6459421456702921,-0.5495760440826416,0.6497690081596375,-0.5553548336029053,0.8349120616912842,2.3406479358673096,0.9968760013580322,,,,,,,
4585280000.0,73.35,-2.2300000190734863,12041169408.0,1806.0755439424784,56.0,-0.018341800197958946,233472.0,368.8304588794708,5.469583119754873e-15,0.0,2.5724945068359375,-0.025724943727254868,0.15296797454357147,-0.025724943727254868,0.0,0.0,-0.051462676376104355,0.5507827401161194,0.6073001850549251,-0.5548220872879028,0.6821979284286499,-0.6062847375869751,0.8789212703704834,2.2679007053375244,0.9971816539764404,,,,,,,
4585280000.0,72.59,-2.2300000190734863,12041169408.0,1808.9246349719178,57.0,-0.011889712885022163,237568.0,371.09478759765625,5.167741234934908e-15,0.0,2.519033432006836,-0.025190329179167747,0.13474538922309875,-0.025190332904458046,3.725290298461914e-09,0.0,0.029337972402572632,0.518358588218689,0.6066506538635401,-0.5824856758117676,0.6407202482223511,-0.5531476736068726,0.8264966607093811,2.264328718185425,0.9971494674682617,,,,,,,
4585280000.0,76.93,-1.909999966621399,12041169408.0,1780.6720962722827,58.0,-0.014573538675904274,241664.0,373.3950426578522,5.396724733763847e-15,0.0,2.5423336029052734,-0.02542332373559475,0.11222019791603088,-0.025423334911465645,1.1175870895385742e-08,0.0,-0.05267929285764694,0.4708709120750427,0.6617249396787217,-0.4268343150615692,0.5764033794403076,-0.47951361536979675,0.8095932602882385,2.300255060195923,0.9968547821044922,,,,,,,
4585280000.0,77.73,-2.009999990463257,12041169408.0,1818.394479236116,59.0,-0.014990780502557755,245760.0,375.64757919311523,5.374173328576148e-15,0.0,2.5400960445404053,-0.02540094591677189,0.11972105503082275,-0.025400958955287933,1.30385160446167e-08,0.0,-0.010138167068362236,0.48928290605545044,0.6955352437233435,-0.4952963590621948,0.6962310075759888,-0.505434513092041,0.8867302536964417,2.2525365352630615,0.9972028732299805,,,,,,,
4585280000.0,73.98,-1.7699999809265137,12041169408.0,1813.662704307809,60.0,-0.011437819339334965,249856.0,377.90599250793457,5.641320743876577e-15,0.0,2.503253936767578,-0.02503253147006035,0.11074710637331009,-0.025032538920640945,7.450580596923828e-09,0.0,0.08822746574878693,0.46234434843063354,0.6956798299281179,-0.608898937702179,0.6962108016014099,-0.5206714868545532,0.8381083607673645,2.258413314819336,0.997084379196167,,,,,,,
4585280000.0,74.03,-1.9500000476837158,12041169408.0,1823.906068334573,61.0,-0.016504893079400063,253952.0,380.1517221927643,5.200700980978468e-15,0.0,2.4926185607910156,-0.02492618001997471,0.11397860944271088,-0.024926185607910156,5.587935447692871e-09,0.0,0.027683481574058533,0.47670361399650574,0.7249755421399993,-0.5812808275222778,0.7564233541488647,-0.5535973906517029,0.9089977145195007,2.245729684829712,0.9969987869262695,,,,,,,
4585280000.0,73.28,-1.9900000095367432,12041169408.0,1773.005769640007,62.0,-0.012670643627643585,258048.0,382.4619233608246,5.9847959921199845e-15,0.0,2.4551262855529785,-0.024551255628466606,0.10405434668064117,-0.024551263079047203,6.984919309616089e-09,0.0,0.022942528128623962,0.4556677043437958,0.735850445096699,-0.5408732891082764,0.7282818555831909,-0.5179307460784912,0.8865910172462463,2.3102011680603027,0.9970993995666504,,,,,,,
4631784000.0,75.78,-1.6399999856948853,12041169408.0,1808.3191507613892,63.0,-0.010834268294274807,262144.0,384.72701025009155,6.201636426617085e-15,0.0,2.436880350112915,-0.024368803948163986,0.0913657397031784,-0.024368802085518837,-1.862645149230957e-09,0.0,0.023721866309642792,0.4268644452095032,0.7686297040901336,-0.5566465854644775,0.7307375073432922,-0.5329247117042542,0.887434184551239,2.2650868892669678,0.997528076171875,,,,,,,
,,,,,,,,,,,,,,,,,,,,,,,,,,0.005925485398620367,0.17787551879882812,0.15643590688705444,0.005925485398620367,0.17787551879882812,0.15643590688705444,
,,,,,,,,,,,,,,,,,,,,,,,,,,0.0014413120225071907,0.14421476423740387,0.13963119685649872,0.0014413120225071907,0.14421476423740387,0.13963119685649872,
,,,,,,,,,,,,,,,,,,,,,,,,,,0.0014191899681463838,0.13093100488185883,0.12758873403072357,0.0014191899681463838,0.13093100488185883,0.12758873403072357,
,,,,,,,,,,,,,,,,,,,,,,,,,,0.0021135658025741577,0.12656010687351227,0.12376777082681656,0.0021135658025741577,0.12656010687351227,0.12376777082681656,
,,,,,,,,,,,,,,,,,,,,,,,,,,0.001605480327270925,0.1179969385266304,0.1153891533613205,0.001605480327270925,0.1179969385266304,0.1153891533613205,
,,,,,,,,,,,,,,,,,,,,,,,,,,0.001430392381735146,0.11280497908592224,0.11030793190002441,0.001430392381735146,0.11280497908592224,0.11030793190002441,
,,,,,,,,,,,,,,,,,,,,,,,,,,,,,,,,-1.27
4634396000.0,76.54,-1.4199999570846558,11990521856.0,17.025401360888548,64.0,-0.010455148294568062,266240.0,625.3087100982666,5.988265439071938e-15,0.0,2.474817991256714,-0.02474818378686905,0.08460579812526703,-0.02474818006157875,-3.725290298461914e-09,0.0,0.005351705476641655,0.41136878728866577,0.7078216593331439,-0.3802846670150757,0.6146364212036133,-0.3749329447746277,0.761039674282074,240.58169984817505,0.9972586631774902,,,,,,,
4634396000.0,78.01,-1.5399999618530273,12041169408.0,1837.1434942970589,65.0,-0.013413623906672001,270336.0,627.5382583141327,5.946632075648495e-15,0.0,2.4573826789855957,-0.024573836475610733,0.08183038234710693,-0.024573827162384987,-1.0244548320770264e-08,0.0,-0.0012056552805006504,0.404597669839859,0.7610567815203838,-0.33268967270851135,0.6312167644500732,-0.33389532566070557,0.8277058601379395,2.229548215866089,0.9969325065612793,,,,,,,
4634396000.0,78.04,-2.0199999809265137,12041169408.0,1746.7982595330868,66.0,-0.01514463685452938,274432.0,629.8831198215485,5.88418203051333e-15,0.0,2.51210355758667,-0.02512102946639061,0.08871178328990936,-0.025121035054326057,6.51925802230835e-09,0.0,-0.011232932098209858,0.4211183786392212,0.7581233330337255,-0.4055873155593872,0.6924062967300415,-0.416820228099823,0.8562629818916321,2.3448615074157715,0.9972620010375977,,,,,,,
4634396000.0,74.76,-1.8300000429153442,12041169408.0,1803.8104140920875,67.0,-0.010070603340864182,278528.0,632.1538684368134,5.39499001028787e-15,0.0,2.5442934036254883,-0.02544296346604824,0.07760412245988846,-0.025442933663725853,-2.9802322387695312e-08,0.0,0.05886995792388916,0.3895890712738037,0.7562551726065222,-0.3957803249359131,0.690765380859375,-0.3369103670120239,0.7891126871109009,2.2707486152648926,0.996985673904419,,,,,,,
4634396000.0,74.27,-1.399999976158142,12041169408.0,1808.2323598380326,68.0,-0.009541718289256096,282624.0,634.4190640449524,5.285702431301331e-15,0.0,2.5920701026916504,-0.025920696556568146,0.09504538774490356,-0.025920700281858444,3.725290298461914e-09,0.0,0.02738817222416401,0.4351860582828522,0.6952369512082011,-0.3972039818763733,0.6641253232955933,-0.36981576681137085,0.7883041501045227,2.265195608139038,0.9970178604125977,,,,,,,
4634396000.0,78.69,-1.4900000095367432,12041169408.0,1762.4785750529209,69.0,-0.012914914637804031,286720.0,636.7430639266968,5.034167527284694e-15,0.0,2.5763673782348633,-0.025763677433133125,0.09592794626951218,-0.025763673707842827,-3.725290298461914e-09,0.0,0.0420914962887764,0.4360397160053253,0.700259711320122,-0.4295097589492798,0.7028778195381165,-0.38741829991340637,0.7964407801628113,2.3239998817443848,0.9971086978912354,,,,,,,
4634396000.0,77.43,-1.4600000381469727,12041169408.0,1822.705350752503,70.0,-0.00727308401837945,290816.0,638.9902729988098,4.77569372936415e-15,0.0,2.5814168453216553,-0.025814170017838478,0.09464627504348755,-0.02581416815519333,-1.862645149230957e-09,0.0,0.044617488980293274,0.432836651802063,0.6765168526227268,-0.3832353353500366,0.6871103644371033,-0.33861786127090454,0.7610237002372742,2.247209072113037,0.9968814849853516,,,,,,,
4634396000.0,78.81,-1.340000033378601,12041169408.0,1822.9768976771618,71.0,-0.010613054037094116,294912.0,641.2371473312378,4.794775687599895e-15,0.0,2.5718019008636475,-0.02571801468729973,0.15645036101341248,-0.025718018412590027,3.725290298461914e-09,0.0,0.002735128626227379,0.5594369173049927,0.5639854486002762,-0.4014713764190674,0.7212474942207336,-0.39873626828193665,0.8472285866737366,2.2468743324279785,0.9971966743469238,,,,,,,
4634396000.0,75.36,-1.7400000095367432,12041169408.0,1758.7906864464899,72.0,-0.01611647754907608,299008.0,643.5660202503204,4.893654925730573e-15,0.0,2.58756160736084,-0.025875601917505264,0.10655956715345383,-0.02587561495602131,1.30385160446167e-08,0.0,-0.01865735463798046,0.4613274335861206,0.7256641347819648,-0.49708789587020874,0.7462182641029358,-0.5157452821731567,0.8807811141014099,2.3288729190826416,0.9973082542419434,,,,,,,
4634396000.0,71.65,-1.7300000190734863,12041169408.0,1812.4983775483968,73.0,-0.008205626159906387,303104.0,645.8258843421936,5.011616122096996e-15,0.0,2.6114020347595215,-0.026114024221897125,0.10167582333087921,-0.026114020496606827,-3.725290298461914e-09,0.0,0.054954566061496735,0.4476388692855835,0.6707422807685508,-0.37622201442718506,0.7101787328720093,-0.32126742601394653,0.7801171541213989,2.259864091873169,0.9973483085632324,,,,,,,
4634396000.0,75.68,-1.3300000429153442,12041169408.0,1777.2680496496748,74.0,-0.013390559703111649,307200.0,648.1305451393127,5.087943955039975e-15,0.0,2.6016108989715576,-0.0260161142796278,0.20028278231620789,-0.026016108691692352,-5.587935447692871e-09,0.0,-0.057977136224508286,0.6303183436393738,0.532860621174614,-0.4096048176288605,0.6818748712539673,-0.46758195757865906,0.9222246408462524,2.3046607971191406,0.9970173835754395,,,,,,,
4634396000.0,77.15,-1.7599999904632568,12041169408.0,1806.055987741433,75.0,-0.01151350885629654,311296.0,650.3984704017639,5.204170427930421e-15,0.0,2.5967319011688232,-0.025967322289943695,0.09856434166431427,-0.025967318564653397,-3.725290298461914e-09,0.0,-0.021883223205804825,0.4435063302516937,0.6727507399386486,-0.28752851486206055,0.6328069567680359,-0.30941176414489746,0.7752833366394043,2.267925262451172,0.99733567237854,,,,,,,
4634396000.0,78.21,-1.3700000047683716,12041169408.0,1759.0136244731239,76.0,-0.006844451650977135,315392.0,652.7270481586456,5.330805241676728e-15,0.0,2.592617988586426,-0.02592618390917778,0.08149527758359909,-0.02592618018388748,-4.6566128730773926e-09,0.0,0.027579400688409805,0.4028269350528717,0.6946856220656733,-0.26301273703575134,0.6170591115951538,-0.23543332517147064,0.72902911901474,2.328577756881714,0.9970705509185791,,,,,,,
4634396000.0,78.67,-0.9100000262260437,12041169408.0,1795.3430436563244,77.0,-0.004979003220796585,319488.0,655.0085062980652,5.538972058793945e-15,0.0,2.604628086090088,-0.02604628913104534,0.08415810763835907,-0.026046279817819595,-9.313225746154785e-09,0.0,-0.018353566527366638,0.4099029004573822,0.6781730361597803,-0.17916563153266907,0.5844911932945251,-0.1975191831588745,0.7225530743598938,2.2814581394195557,0.9973955154418945,,,,,,,
4634396000.0,79.69,-0.8399999737739563,12041169408.0,1743.028132059229,78.0,-0.008211281150579453,323584.0,657.3584396839142,6.0645932720149176e-15,0.0,2.557199001312256,-0.025571981444954872,0.1183014065027237,-0.02557198889553547,7.450580596923828e-09,0.0,-0.04222950339317322,0.4846409261226654,0.6361976619019886,-0.24185805022716522,0.592500627040863,-0.28408753871917725,0.8035026788711548,2.349933385848999,0.997168779373169,,,,,,,
4634396000.0,79.3,-1.4299999475479126,12041169408.0,1761.1314693627423,79.0,-0.009554624557495117,327680.0,659.6842172145844,6.305719835175694e-15,0.0,2.591848373413086,-0.025918491184711456,0.09677273035049438,-0.02591848373413086,-6.51925802230835e-09,0.0,-0.013171480968594551,0.43979451060295105,0.6279652683706577,-0.2556762099266052,0.5689395070075989,-0.2688477039337158,0.7210376858711243,2.325777530670166,0.9972391128540039,,,,,,,
4634396000.0,77.75,-1.2799999713897705,12041169408.0,1814.5105319513657,80.0,-0.0052613564766943455,331776.0,661.9415752887726,6.409803243734302e-15,0.0,2.566549777984619,-0.02566549926996231,0.09210975468158722,-0.02566549740731716,-2.7939677238464355e-09,0.0,0.01950714737176895,0.42881685495376587,0.56841953292522,-0.22874219715595245,0.5155235528945923,-0.2092350423336029,0.6527410745620728,2.2573580741882324,0.9971323013305664,,,,,,,
4634396000.0,75.33,-0.6600000262260437,12041169408.0,1747.6656008673697,81.0,-0.006223384290933609,335872.0,664.2852730751038,6.579806144380029e-15,0.0,2.5584139823913574,-0.025584131479263306,0.08564308285713196,-0.025584138929843903,7.450580596923828e-09,0.0,0.005043124780058861,0.4138871133327484,0.6516532750445967,-0.2860059440135956,0.5935348868370056,-0.28096282482147217,0.7012551426887512,2.3436977863311768,0.9970667362213135,,,,,,,
4634396000.0,77.0,-1.1200000047683716,12041169408.0,1801.6021570732194,82.0,-0.008665679022669792,339968.0,666.5588049888611,7.0464467594177904e-15,0.0,2.5399858951568604,-0.025399865582585335,0.09571793675422668,-0.025399858132004738,-7.450580596923828e-09,0.0,-0.03643850237131119,0.4360671043395996,0.689093437759507,-0.2265036553144455,0.5819873213768005,-0.2629421353340149,0.782056987285614,2.273531913757324,0.9972274303436279,,,,,,,
4634396000.0,81.68,-0.9700000286102295,12041169408.0,1737.893269274248,83.0,-0.002851853147149086,344064.0,668.9156816005707,7.967584925161475e-15,0.0,2.465803384780884,-0.02465803734958172,0.06446078419685364,-0.02465803362429142,-3.725290298461914e-09,0.0,0.0027404511347413063,0.3590898811817169,0.6692657783506857,-0.13660961389541626,0.5251761674880981,-0.13386917114257812,0.6244010329246521,2.3568766117095947,0.9972875118255615,,,,,,,
4634396000.0,83.64,-0.75,12041169408.0,1813.9997482765816,84.0,-0.0074790725484490395,348160.0,671.1736752986908,8.592085376513126e-15,0.0,2.4569029808044434,-0.024569032713770866,0.09464246034622192,-0.024569028988480568,-3.725290298461914e-09,0.0,-0.03423987701535225,0.43377238512039185,0.7401295946089109,-0.30190226435661316,0.6562665104866028,-0.3361421227455139,0.8509097695350647,2.257993698120117,0.9970645904541016,,,,,,,
4634396000.0,82.07,-0.9700000286102295,12041169408.0,1828.242559618667,85.0,-0.005579570308327675,352256.0,673.4140782356262,8.699638232023688e-15,0.0,2.481017589569092,-0.0248101819306612,0.0976078063249588,-0.024810174480080605,-7.450580596923828e-09,0.0,-0.048957329243421555,0.4391649663448334,0.7340852810319913,-0.15963199734687805,0.6509732604026794,-0.2085893303155899,0.8516408801078796,2.240402936935425,0.9972488880157471,,,,,,,
4634396000.0,78.48,-0.7900000214576721,12041169408.0,1813.1053247024079,86.0,-0.0055884066969156265,356352.0,675.6731858253479,9.825473767932635e-15,0.0,2.432588815689087,-0.024325884878635406,0.08322689682245255,-0.024325886741280556,1.862645149230957e-09,0.0,0.03831171244382858,0.4062342941761017,0.6963540469156481,-0.2989952564239502,0.6372551918029785,-0.260683536529541,0.7372127175331116,2.2591075897216797,0.9974575042724609,,,,,,,
4634396000.0,76.6,-0.46000000834465027,12041169408.0,1844.6414779921215,87.0,-0.001366639044135809,360448.0,677.8936715126038,8.316264343832813e-15,0.0,2.468510150909424,-0.02468511089682579,0.06911852210760117,-0.024685101583600044,-9.313225746154785e-09,0.0,0.053597621619701385,0.36796385049819946,0.7116057650499363,-0.29365023970603943,0.5979810953140259,-0.24005259573459625,0.68519127368927,2.2204856872558594,0.9972817897796631,,,,,,,
4634396000.0,77.49,-0.5400000214576721,12041169408.0,1823.4908146523167,88.0,-0.006168055348098278,364544.0,680.1399126052856,9.046582927219049e-15,0.0,2.5064053535461426,-0.02506405860185623,0.09459300339221954,-0.025064053013920784,-5.587935447692871e-09,0.0,0.02810419350862503,0.4340992271900177,0.6843858851231494,-0.40653717517852783,0.7173691391944885,-0.3784329891204834,0.7726998329162598,2.2462410926818848,0.9972894191741943,,,,,,,
4634396000.0,78.18,-0.550000011920929,12041169408.0,1773.4433796018393,89.0,-0.0024727904237806797,368640.0,682.4495437145233,8.722189637211386e-15,0.0,2.517709970474243,-0.02517709694802761,0.11160910129547119,-0.02517709881067276,1.862645149230957e-09,0.0,0.030644956976175308,0.47152242064476013,0.5380533375742154,-0.23730504512786865,0.6089661717414856,-0.20666009187698364,0.6937554478645325,2.309631109237671,0.997272253036499,,,,,,,
4634396000.0,78.82,-0.550000011920929,12041169408.0,1802.791681322768,90.0,-0.005506226792931557,372736.0,684.7215754985809,9.246076126956382e-15,0.0,2.5545029640197754,-0.025545021519064903,0.11033786833286285,-0.0255450289696455,7.450580596923828e-09,0.0,-0.0018810592591762543,0.4698149263858795,0.6141511790275962,-0.32284015417099,0.6333929300308228,-0.32472121715545654,0.7563419938087463,2.272031784057617,0.9972958564758301,,,,,,,
4634396000.0,79.17,-0.5799999833106995,12041169408.0,1838.461089766275,91.0,-0.0026225955225527287,376832.0,686.9495258331299,8.756884106730922e-15,0.0,2.532667875289917,-0.025326695293188095,0.08655145764350891,-0.025326678529381752,-1.6763806343078613e-08,0.0,0.013442536816000938,0.4158899784088135,0.604993049184476,-0.1557978391647339,0.5806892514228821,-0.1423552930355072,0.661722719669342,2.22795033454895,0.9972183704376221,,,,,,,
4634396000.0,77.08,-0.44999998807907104,12041169408.0,1762.3625012361251,92.0,-0.00442885234951973,380928.0,689.273678779602,9.343220641611083e-15,0.0,2.539958953857422,-0.0253995880484581,0.09498149156570435,-0.0253995880484581,0.0,0.0,0.016880234703421593,0.43557360768318176,0.5506006331363369,-0.26127922534942627,0.5245323181152344,-0.24439898133277893,0.6497485637664795,2.324152946472168,0.9971485137939453,,,,,,,
4634396000.0,76.99,-0.5,12041169408.0,1742.7240144227233,93.0,-0.0023589085321873426,385024.0,691.6240222454071,8.52443116095003e-15,0.0,2.5605311393737793,-0.025605322793126106,0.09219037741422653,-0.02560531161725521,-1.1175870895385742e-08,0.0,0.037328146398067474,0.42782244086265564,0.5362623942099541,-0.17549416422843933,0.5200622081756592,-0.13816602528095245,0.6282426118850708,2.3503434658050537,0.997065544128418,,,,,,,
4634396000.0,81.08,-0.5,12041169408.0,1793.5287345222146,94.0,-0.006806952878832817,389120.0,693.9077882766724,9.403935963270271e-15,0.0,2.5337471961975098,-0.025337478145956993,0.13256624341011047,-0.025337470695376396,-7.450580596923828e-09,0.0,-0.057032182812690735,0.511804461479187,0.31551046567530705,-0.14005771279335022,0.42727717757225037,-0.19708988070487976,0.6186152696609497,2.283766031265259,0.9971098899841309,,,,,,,
4634396000.0,81.13,-0.8999999761581421,12041169408.0,1742.123163772486,95.0,-0.008762896060943604,393216.0,696.2589423656464,9.584347204771859e-15,0.0,2.528782606124878,-0.025287825614213943,0.13964371383190155,-0.025287825614213943,0.0,0.0,-0.10582520067691803,0.517835795879364,0.3499566304516286,-0.0996347963809967,0.3902967572212219,-0.20545998215675354,0.642274796962738,2.351154088973999,0.997246265411377,,,,,,,
,,,,,,,,,,,,,,,,,,,,,,,,,,0.012632863596081734,0.12469378113746643,0.10126150399446487,0.012632863596081734,0.12469378113746643,0.10126150399446487,
,,,,,,,,,,,,,,,,,,,,,,,,,,0.0035194149240851402,0.0941418707370758,0.09113357961177826,0.0035194149240851402,0.0941418707370758,0.09113357961177826,
,,,,,,,,,,,,,,,,,,,,,,,,,,0.0026197524275630713,0.08809984475374222,0.08559590578079224,0.0026197524275630713,0.08809984475374222,0.08559590578079224,
,,,,,,,,,,,,,,,,,,,,,,,,,,0.002817951375618577,0.08561622351408005,0.08250057697296143,0.002817951375618577,0.08561622351408005,0.08250057697296143,
,,,,,,,,,,,,,,,,,,,,,,,,,,0.0027174304705113173,0.08281213045120239,0.08095552772283554,0.0027174304705113173,0.08281213045120239,0.08095552772283554,
,,,,,,,,,,,,,,,,,,,,,,,,,,0.0024919789284467697,0.07985891401767731,0.07823042571544647,0.0024919789284467697,0.07985891401767731,0.07823042571544647,
,,,,,,,,,,,,,,,,,,,,,,,,,,,,,,,,-1.82
4634684000.0,78.15,-0.7200000286102295,11990521856.0,17.01044515030298,96.0,0.0011155117535963655,397312.0,937.0521705150604,7.710845850716908e-15,0.0,2.515030860900879,-0.025150323286652565,0.07183544337749481,-0.02515030838549137,-1.4901161193847656e-08,0.0,0.09136015176773071,0.36790934205055237,0.5851370618755152,-0.1888934075832367,0.5260580778121948,-0.09753324091434479,0.5712003111839294,240.79322814941406,0.9970519542694092,,,,,,,
4634684000.0,77.04,-0.009999999776482582,12041169408.0,1817.7964884094488,97.0,-0.000978181604295969,401408.0,939.3054480552673,7.657069422961627e-15,0.0,2.4266905784606934,-0.024266904219985008,0.07338272780179977,-0.024266906082630157,1.862645149230957e-09,0.0,0.06909187138080597,0.376863956451416,0.5636499397002823,-0.18033629655838013,0.4569365978240967,-0.11124443262815475,0.570514976978302,2.253277540206909,0.9973559379577637,,,,,,,
4634684000.0,77.3,-0.10000000149011612,12041169408.0,1755.6849864285948,98.0,-0.0030809929594397545,405504.0,941.6384406089783,7.624109676918067e-15,0.0,2.4857800006866455,-0.02485780604183674,0.08151592314243317,-0.02485779859125614,-7.450580596923828e-09,0.0,0.02215542457997799,0.4032129645347595,0.5657142872045017,-0.1670750081539154,0.4906919002532959,-0.14491957426071167,0.6118524074554443,2.3329925537109375,0.9972033500671387,,,,,,,
4634684000.0,78.39,-0.4099999964237213,12041169408.0,1812.8916130542275,99.0,-0.0028061058837920427,409600.0,943.8978145122528,8.101158632811689e-15,0.0,2.417224645614624,-0.024172242730855942,0.0731305181980133,-0.02417224645614624,2.7939677238464355e-09,0.0,0.004472202155739069,0.38246145844459534,0.592541843139062,-0.1282910704612732,0.40529096126556396,-0.12381886690855026,0.599164605140686,2.259373903274536,0.9971671104431152,,,,,,,
4634684000.0,82.19,-0.2800000011920929,12041169408.0,1803.1771198381957,100.0,-0.00014069629833102226,413696.0,946.1693606376648,9.046582927219049e-15,0.0,2.4035263061523438,-0.024035261943936348,0.055177584290504456,-0.024035261943936348,0.0,0.0,0.06046564131975174,0.32668814063072205,0.5290169003937946,-0.06802482903003693,0.36881542205810547,-0.007559195160865784,0.4760260283946991,2.2715461254119873,0.9974098205566406,,,,,,,
4634684000.0,79.1,-0.25,12041169408.0,1755.4028025147613,101.0,-0.0036660104524344206,417792.0,948.5027282238007,8.767292447586783e-15,0.0,2.3735392093658447,-0.02373538725078106,0.07505427300930023,-0.023735390976071358,3.725290298461914e-09,0.0,0.00960463471710682,0.3873666524887085,0.5303169256117499,-0.12367561459541321,0.37395450472831726,-0.11407096683979034,0.565222978591919,2.3333675861358643,0.997443437576294,,,,,,,
4634684000.0,77.43,-0.30000001192092896,12041169408.0,1811.6220535345774,102.0,-0.0025440738536417484,421888.0,950.763685464859,9.593020822151743e-15,0.0,2.3909902572631836,-0.023909904062747955,0.07078342139720917,-0.023909902200102806,-9.313225746154785e-10,0.0,-0.011127810925245285,0.37613505125045776,0.44478058166314416,-0.033640556037425995,0.30718934535980225,-0.04476836323738098,0.5047907829284668,2.2609572410583496,0.9968898296356201,,,,,,,
4634684000.0,76.56,-0.18000000715255737,12041169408.0,1746.5988270859077,103.0,-0.0011334463488310575,425984.0,953.1088147163391,9.483733243165204e-15,0.0,2.402015209197998,-0.024020154029130936,0.05483938008546829,-0.024020152166485786,-2.7939677238464355e-09,0.0,-0.002015447709709406,0.3312121331691742,0.629399182670862,-0.02926676534116268,0.34499505162239075,-0.0312822088599205,0.5440678596496582,2.3451292514801025,0.9972012042999268,,,,,,,
4634684000.0,71.93,0.029999999329447746,12041169408.0,1783.0387699720286,104.0,0.002557168947532773,430080.0,955.4060165882111,1.0014558626814107e-14,0.0,2.4352564811706543,-0.024352550506591797,0.04754635691642761,-0.02435256354510784,1.30385160446167e-08,0.0,0.08574780821800232,0.29624560475349426,0.5596209584452614,-0.04667395353317261,0.34176769852638245,0.039073847234249115,0.4464147984981537,2.2972018718719482,0.9971151351928711,,,,,,,
4634684000.0,72.68,0.14000000059604645,12041169408.0,1766.2373433943146,105.0,-0.0011391912121325731,434176.0,957.7250707149506,9.396997069366364e-15,0.0,2.387701988220215,-0.02387702651321888,0.05832500010728836,-0.023877019062638283,-7.450580596923828e-09,0.0,0.022953586652874947,0.34081006050109863,0.5673575228976537,-0.05775056034326553,0.3654123544692993,-0.034796975553035736,0.5181407928466797,2.319054126739502,0.998441219329834,,,,,,,
4634684000.0,76.22,0.09000000357627869,12041169408.0,1768.9571181142073,106.0,0.0015703660901635885,438272.0,960.0405592918396,9.879250195687916e-15,0.0,2.352614641189575,-0.023526152595877647,0.04686369746923447,-0.02352614514529705,-7.450580596923828e-09,0.0,0.02751191146671772,0.3049478530883789,0.6193339736662197,0.06778264045715332,0.320147305727005,0.09529455006122589,0.49425777792930603,2.315488576889038,0.9971706867218018,,,,,,,
4634684000.0,76.57,0.33000001311302185,12041169408.0,1790.995787062115,107.0,0.0037213657051324844,442368.0,962.327555179596,1.0075273948473296e-14,0.0,2.3839797973632812,-0.023839794099330902,0.03592748939990997,-0.0238397978246212,3.725290298461914e-09,0.0,0.06188048794865608,0.26084938645362854,0.6060900979255935,0.05472540855407715,0.35067078471183777,0.11660589277744293,0.41561511158943176,2.2869958877563477,0.9971964359283447,,,,,,,
4634684000.0,75.35,0.550000011920929,12041169408.0,1786.431727685005,108.0,0.004303801339119673,446464.0,964.6203939914703,1.0387524174149121e-14,0.0,2.3177521228790283,-0.02317751757800579,0.043400704860687256,-0.02317752130329609,3.725290298461914e-09,0.0,0.03776014596223831,0.292226642370224,0.5243092136426696,0.11295698583126068,0.31361427903175354,0.1507171392440796,0.4236990213394165,2.2928388118743896,0.9972207546234131,,,,,,,
4634684000.0,74.58,0.23999999463558197,12041169408.0,1807.6398918227662,109.0,-0.0014378441264852881,450560.0,966.8863320350647,1.054538401046301e-14,0.0,2.3937554359436035,-0.02393754944205284,0.0653650164604187,-0.02393755316734314,3.725290298461914e-09,0.0,0.00015445798635482788,0.3616102337837219,0.5644562342064284,-0.0005402928218245506,0.3964551091194153,-0.00038583576679229736,0.547929584980011,2.2659380435943604,0.9971325397491455,,,,,,,
4634684000.0,75.74,-0.07999999821186066,12041169408.0,1825.596328886977,110.0,-0.0005763750523328781,454656.0,969.1299824714661,9.580877757819906e-15,0.0,2.393150568008423,-0.02393150143325329,0.06643402576446533,-0.023931505158543587,3.725290298461914e-09,0.0,-0.027903413400053978,0.3634854853153229,0.5996091527009988,0.1032675951719284,0.40669891238212585,0.07536417990922928,0.5744404792785645,2.243650436401367,0.9970378875732422,,,,,,,
4634684000.0,80.43,0.07999999821186066,12041169408.0,1806.5379911102511,111.0,0.002311336575075984,458752.0,971.3973026275635,1.0462117283616124e-14,0.0,2.386270523071289,-0.02386268973350525,0.039480529725551605,-0.023862704634666443,1.4901161193847656e-08,0.0,0.017323363572359085,0.2804998457431793,0.6368016031531689,0.18524214625358582,0.3839570879936218,0.2025655061006546,0.46543675661087036,2.267320156097412,0.9975168704986572,,,,,,,
4634684000.0,81.18,0.2800000011920929,12041169408.0,1836.2910725218646,112.0,0.0024617414455860853,462848.0,973.6278858184814,9.96945581643871e-15,0.0,2.4297447204589844,-0.0242974441498518,0.05399937927722931,-0.024297446012496948,1.862645149230957e-09,0.0,0.010984178632497787,0.3284881114959717,0.5447869035150685,0.15591630339622498,0.4220389425754547,0.16690047085285187,0.4868691861629486,2.2305831909179688,0.9971556663513184,,,,,,,
4634684000.0,77.19,0.3799999952316284,12041169408.0,1786.597255482857,113.0,0.0020320212934166193,466944.0,975.9205121994019,1.0547118733938987e-14,0.0,2.406670570373535,-0.024066701531410217,0.05248185247182846,-0.024066705256700516,3.725290298461914e-09,0.0,-0.02428232505917549,0.3231092095375061,0.497453112866976,0.26311156153678894,0.3657439947128296,0.23882922530174255,0.4557860791683197,2.29262638092041,0.9970567226409912,,,,,,,
4634684000.0,75.28,0.36000001430511475,12041169408.0,1770.6868074376832,114.0,0.002763361670076847,471040.0,978.233738899231,9.68149171942656e-15,0.0,2.4709420204162598,-0.024709427729249,0.05469774827361107,-0.024709420278668404,-7.450580596923828e-09,0.0,-0.016604626551270485,0.3303731679916382,0.6732507596429325,0.1941298544406891,0.4131845235824585,0.17752523720264435,0.5779595971107483,2.3132266998291016,0.9970922470092773,,,,,,,
4634684000.0,75.02,0.47999998927116394,12041169408.0,1816.0140876409998,115.0,0.0046668145805597305,475136.0,980.4892280101776,9.695369507234375e-15,0.0,2.460479497909546,-0.024604782462120056,0.03183840960264206,-0.02460479363799095,1.0244548320770264e-08,0.0,0.012516369111835957,0.2520628273487091,0.5660009245190472,0.24527433514595032,0.3381335139274597,0.2577906847000122,0.38261711597442627,2.2554891109466553,0.996985912322998,,,,,,,
4634684000.0,75.61,0.5099999904632568,12041169408.0,1787.3119221167178,116.0,0.0042369673028588295,479232.0,982.7809376716614,1.0347625534201654e-14,0.0,2.475752353668213,-0.02475753426551819,0.0668129250407219,-0.024757523089647293,-1.1175870895385742e-08,0.0,-0.007071486674249172,0.36552491784095764,0.573468211783581,0.2046819031238556,0.40011873841285706,0.19761040806770325,0.5596819519996643,2.2917096614837646,0.9973833560943604,,,,,,,
4634684000.0,78.72,0.550000011920929,12041169408.0,1741.970896291409,117.0,0.0042457301169633865,483328.0,985.1322972774506,9.377915111130619e-15,0.0,2.48183536529541,-0.024818360805511475,0.03946158289909363,-0.024818353354930878,-7.450580596923828e-09,0.0,-0.004688020795583725,0.280927836894989,0.6303790551423746,0.2421523630619049,0.350930780172348,0.23746433854103088,0.4620792865753174,2.3513596057891846,0.99715256690979,,,,,,,
4634684000.0,75.57,0.4399999976158142,12041169408.0,1807.3261210162384,118.0,0.0016139466315507889,487424.0,987.3986287117004,1.0720591081536668e-14,0.0,2.4698410034179688,-0.024698406457901,0.048308879137039185,-0.0246984101831913,3.725290298461914e-09,0.0,-0.024476535618305206,0.30990660190582275,0.6650584729270116,0.17318139970302582,0.394988477230072,0.1487048715353012,0.5354838371276855,2.266331434249878,0.9971606731414795,,,,,,,
4634684000.0,79.0,0.30000001192092896,12041169408.0,1770.605598516143,119.0,0.00426353607326746,491520.0,989.7119615077972,1.0314665788158095e-14,0.0,2.4699764251708984,-0.02469976432621479,0.056492336094379425,-0.02469976432621479,0.0,0.0,-0.006286049261689186,0.33611416816711426,0.518897487649193,0.259472519159317,0.3581617474555969,0.2531864643096924,0.4845828115940094,2.3133327960968018,0.9970211982727051,,,,,,,
4634684000.0,86.57,0.5699999928474426,12041169408.0,1804.0443437056172,120.0,0.005597397685050964,495616.0,991.982415676117,1.0493342306183706e-14,0.0,2.462709426879883,-0.024627093225717545,0.051973775029182434,-0.024627093225717545,0.0,0.0,0.02449481002986431,0.32151639461517334,0.5531273202103018,0.21648463606834412,0.3695065379142761,0.24097943305969238,0.48096251487731934,2.270454168319702,0.9973869323730469,,,,,,,
4634684000.0,79.94,0.5099999904632568,12041169408.0,1787.7402524749673,121.0,0.0011806469410657883,499712.0,994.273576259613,1.0456913113188193e-14,0.0,2.451200008392334,-0.02451198548078537,0.07372148334980011,-0.024512000381946564,1.4901161193847656e-08,0.0,-0.04179290682077408,0.3817484676837921,0.4833530600906729,0.21593773365020752,0.35792282223701477,0.17414483428001404,0.5311050415039062,2.2911605834960938,0.9973478317260742,,,,,,,
4634684000.0,76.01,0.3799999952316284,12041169408.0,1814.9335926799515,122.0,0.005028193350881338,503808.0,996.5304081439972,1.0901002323038256e-14,0.0,2.435652256011963,-0.02435651794075966,0.04238719865679741,-0.024356521666049957,3.725290298461914e-09,0.0,0.013538945466279984,0.2908809781074524,0.5657783967513326,0.19111739099025726,0.37667009234428406,0.20465633273124695,0.44142773747444153,2.2568318843841553,0.9972720146179199,,,,,,,
4634684000.0,75.08,0.6600000262260437,12041169408.0,1801.5422686665268,123.0,0.005781332030892372,507904.0,998.8040156364441,1.1437031877115089e-14,0.0,2.40866756439209,-0.024086683988571167,0.025469770655035973,-0.02408667467534542,-1.0244548320770264e-08,0.0,0.020504239946603775,0.224792018532753,0.7215994146079694,0.22972828149795532,0.36438608169555664,0.2502325177192688,0.4260355532169342,2.2736074924468994,0.9972972869873047,,,,,,,
4634684000.0,76.51,0.800000011920929,12041169408.0,1788.8103939213302,124.0,0.006240769289433956,512000.0,1001.0938055515289,1.1445705494494973e-14,0.0,2.3940048217773438,-0.02394004352390766,0.023770540952682495,-0.02394004724919796,3.725290298461914e-09,0.0,0.006679155398160219,0.21796347200870514,0.7077132182373533,0.2724965810775757,0.3677732050418854,0.2791757583618164,0.40316155552864075,2.289789915084839,0.9973838329315186,,,,,,,
4634684000.0,73.94,0.8299999833106995,12041169408.0,1804.72791723148,125.0,0.007445438764989376,516096.0,1003.3633997440338,1.1962653090336062e-14,0.0,2.388622522354126,-0.02388622798025608,0.0222698375582695,-0.023886224254965782,-3.725290298461914e-09,0.0,0.01778978295624256,0.21031880378723145,0.7494144305979857,0.23173969984054565,0.3689750134944916,0.24952948093414307,0.42014583945274353,2.269594192504883,0.9972121715545654,,,,,,,
4634684000.0,74.47,0.8100000023841858,12041169408.0,1775.4293367026098,126.0,0.005968701094388962,520192.0,1005.6704473495483,1.1676423716799889e-14,0.0,2.383479595184326,-0.023834798485040665,0.025843627750873566,-0.023834794759750366,-3.725290298461914e-09,0.0,0.00979836005717516,0.22716480493545532,0.6960819302919531,0.20560890436172485,0.34172627329826355,0.21540728211402893,0.4120621979236603,2.3070476055145264,0.9974994659423828,,,,,,,
4634684000.0,75.62,0.6200000047683716,12041169408.0,1838.8164679149236,127.0,0.004185495898127556,524288.0,1007.8979671001434,1.3230735951275108e-14,0.0,2.3319621086120605,-0.023319628089666367,0.04316306114196777,-0.02331962063908577,-7.450580596923828e-09,0.0,-0.012507877312600613,0.293582558631897,0.591333432532217,0.21335753798484802,0.32758066058158875,0.20084968209266663,0.45924636721611023,2.2275197505950928,0.9971776008605957,,,,,,,
,,,,,,,,,,,,,,,,,,,,,,,,,,0.00909783411771059,0.0685429498553276,0.05701160430908203,0.00909783411771059,0.0685429498553276,0.05701160430908203,
,,,,,,,,,,,,,,,,,,,,,,,,,,0.003466003341600299,0.053805217146873474,0.05237617343664169,0.003466003341600299,0.053805217146873474,0.05237617343664169,
,,,,,,,,,,,,,,,,,,,,,,,,,,0.0030455938540399075,0.05153430998325348,0.050563711673021317,0.0030455938540399075,0.05153430998325348,0.050563711673021317,
,,,,,,,,,,,,,,,,,,,,,,,,,,0.0025808531790971756,0.04942953959107399,0.048075929284095764,0.0025808531790971756,0.04942953959107399,0.048075929284095764,
,,,,,,,,,,,,,,,,,,,,,,,,,,0.0025137229822576046,0.04765181243419647,0.046815674751996994,0.0025137229822576046,0.04765181243419647,0.046815674751996994,
,,,,,,,,,,,,,,,,,,,,,,,,,,0.002277758438140154,0.04580317437648773,0.04429333657026291,0.002277758438140154,0.04580317437648773,0.04429333657026291,
,,,,,,,,,,,,,,,,,,,,,,,,,,,,,,,,-1.8
4634688000.0,76.0,0.7099999785423279,11990521856.0,17.008528263771737,128.0,0.006292319856584072,528384.0,1248.7183330059052,1.1188966420050406e-14,0.0,2.334369659423828,-0.023343710228800774,0.033934082835912704,-0.02334369532763958,-1.4901161193847656e-08,0.0,0.042464591562747955,0.2570623457431793,0.6223339944540689,0.1639370322227478,0.36455482244491577,0.20640163123607635,0.41829678416252136,240.82036590576172,0.9973757266998291,,,,,,,
4634688000.0,77.19,0.8100000023841858,12041169408.0,1820.434992333028,129.0,0.006454872898757458,532480.0,1250.9683446884155,1.1445705494494973e-14,0.0,2.3081538677215576,-0.02308153361082077,0.02927667647600174,-0.02308153733611107,3.725290298461914e-09,0.0,0.03896179795265198,0.23884986340999603,0.6696612586184623,0.17945431172847748,0.35610583424568176,0.21841610968112946,0.415571004152298,2.250011682510376,0.9971067905426025,,,,,,,
4634688000.0,73.73,0.6899999976158142,12041169408.0,1819.8354661303583,130.0,0.005868144799023867,536576.0,1253.2190976142883,1.2427558981897846e-14,0.0,2.279878616333008,-0.022798782214522362,0.021651383489370346,-0.02279878593981266,3.725290298461914e-09,0.0,0.05235464125871658,0.20142407715320587,0.765552999703517,0.159782275557518,0.3798495829105377,0.212136909365654,0.41599589586257935,2.2507529258728027,0.9973175525665283,,,,,,,
4634688000.0,71.87,0.8799999952316284,12041169408.0,1836.474018291335,131.0,0.008743587881326675,540672.0,1255.4494585990906,1.1282641487753153e-14,0.0,2.26081919670105,-0.022608190774917603,0.02011002041399479,-0.022608190774917603,0.0,0.0,0.057374823838472366,0.1921904981136322,0.7840814125951846,0.16145475208759308,0.38480839133262634,0.21882957220077515,0.41360607743263245,2.230360984802246,0.9976389408111572,,,,,,,
4634688000.0,71.81,0.9599999785423279,12041169408.0,1769.401296575235,132.0,0.00860941968858242,544768.0,1257.7643659114838,1.2330414467243145e-14,0.0,2.2734177112579346,-0.022734176367521286,0.018396902829408646,-0.022734176367521286,0.0,0.0,0.03198709711432457,0.18915435671806335,0.7971544985639041,0.24238289892673492,0.361601859331131,0.274370014667511,0.4199848473072052,2.3149073123931885,0.9973423480987549,,,,,,,
4634688000.0,72.36,0.7300000190734863,12041169408.0,1809.291359420045,133.0,0.004087237641215324,548864.0,1260.0282356739044,1.2736339760621718e-14,0.0,2.252948760986328,-0.02252948470413685,0.04987170547246933,-0.022529486566781998,1.862645149230957e-09,0.0,0.020045926794409752,0.31522345542907715,0.66921747204104,0.15949267148971558,0.4398229420185089,0.17953860759735107,0.5480841994285583,2.2638697624206543,0.9971268177032471,,,,,,,
4634688000.0,73.56,0.5400000214576721,12041169408.0,1795.4528070310384,134.0,0.0050052618607878685,552960.0,1262.3095543384552,1.1988673942475714e-14,0.0,2.246601104736328,-0.022466003894805908,0.03986651450395584,-0.022466011345386505,7.450580596923828e-09,0.0,0.0036788699217140675,0.2823808491230011,0.7086540935548605,0.25607484579086304,0.42525243759155273,0.2597537338733673,0.5231555104255676,2.2813186645507812,0.9970705509185791,,,,,,,
4634688000.0,74.74,0.7599999904632568,12041169408.0,1760.5792025847713,135.0,0.006232608109712601,557056.0,1264.6360614299774,1.2155207396169487e-14,0.0,2.265779495239258,-0.022657791152596474,0.02456732653081417,-0.022657794877886772,3.725290298461914e-09,0.0,0.03262999653816223,0.2192753404378891,0.7702368373155414,0.1969890594482422,0.40220874547958374,0.22961904108524323,0.4574562907218933,2.326507091522217,0.9971315860748291,,,,,,,
4634688000.0,76.96,0.7799999713897705,12041169408.0,1808.5748136669501,136.0,0.006853890139609575,561152.0,1266.9008281230927,1.2084083733654438e-14,0.0,2.26588773727417,-0.022658875212073326,0.02055066078901291,-0.022658877074718475,1.862645149230957e-09,0.0,0.01292226929217577,0.2023470401763916,0.8187136057890649,0.308349609375,0.4123527705669403,0.3212718665599823,0.47524142265319824,2.2647666931152344,0.997234582901001,,,,,,,
4634688000.0,76.8,0.8700000047683716,12041169408.0,1741.9744288779784,137.0,0.008549205958843231,565248.0,1269.2521829605103,1.2569806306927944e-14,0.0,2.2511672973632812,-0.022511672228574753,0.013842984102666378,-0.022511672228574753,0.0,0.0,0.03175187483429909,0.1633533090353012,0.8858517246205908,0.3703456223011017,0.45595651865005493,0.4020974934101105,0.48349642753601074,2.3513548374176025,0.9974203109741211,,,,,,,
4634688000.0,73.29,0.9300000071525574,12041169408.0,1756.322341786406,138.0,0.007188570685684681,569344.0,1271.5843288898468,1.2094492074510299e-14,0.0,2.253852367401123,-0.022538531571626663,0.02662908472120762,-0.022538522258400917,-8.381903171539307e-09,0.0,-0.022808998823165894,0.22967542707920074,0.805023584323116,0.3175705671310425,0.4787099361419678,0.2947615683078766,0.5201438665390015,2.332145929336548,0.9972755908966064,,,,,,,
4634688000.0,72.12,0.949999988079071,12041169408.0,1812.6534709835018,139.0,0.00980180874466896,573440.0,1273.8439996242523,1.1320805404224643e-14,0.0,2.2484116554260254,-0.02248411253094673,0.027079500257968903,-0.02248411625623703,3.725290298461914e-09,0.0,-0.018284132704138756,0.23202981054782867,0.802309153638127,0.35389119386672974,0.48174750804901123,0.33560705184936523,0.5218557715415955,2.2596707344055176,0.9970266819000244,,,,,,,
4634688000.0,72.2,0.9700000286102295,12041169408.0,1759.5263441915781,140.0,0.0072128125466406345,577536.0,1276.171898841858,1.181173214792608e-14,0.0,2.247859001159668,-0.022478602826595306,0.01744002476334572,-0.022478589788079262,-1.210719347000122e-08,0.0,-0.025917332619428635,0.18497754633426666,0.8651546489261088,0.3807772994041443,0.505652129650116,0.35485994815826416,0.50373375415802,2.327899217605591,0.9970276355743408,,,,,,,
4634688000.0,73.48,0.9200000166893005,12041169408.0,1819.3060749506863,141.0,0.008916358463466167,581632.0,1278.4233067035675,1.3090223349720986e-14,0.0,2.234651565551758,-0.022346507757902145,0.02718488872051239,-0.022346515208482742,7.450580596923828e-09,0.0,-0.04573160409927368,0.22867260873317719,0.837573013208385,0.4364839196205139,0.5395761728286743,0.39075228571891785,0.5673944354057312,2.2514078617095947,0.9972283840179443,,,,,,,
4634688000.0,73.59,1.0299999713897705,12041169408.0,1809.667573122503,142.0,0.008622699417173862,585728.0,1280.686705827713,1.1836018276589755e-14,0.0,2.2460007667541504,-0.022460028529167175,0.018562478944659233,-0.022460008040070534,-1.955777406692505e-08,0.0,-0.035395845770835876,0.18942242860794067,0.8536241833037148,0.32500317692756653,0.4872225224971771,0.28960728645324707,0.49510428309440613,2.263399124145508,0.9986822605133057,,,,,,,
4634688000.0,72.8,0.8899999856948853,12041169408.0,1786.2708737166538,143.0,0.00416585011407733,589824.0,1282.979751110077,1.1641729247280352e-14,0.0,2.3126468658447266,-0.023126475512981415,0.027636904269456863,-0.023126468062400818,-7.450580596923828e-09,0.0,-0.037322528660297394,0.23215080797672272,0.8039163172606862,0.375108540058136,0.4955074191093445,0.3377860188484192,0.524263322353363,2.2930452823638916,0.997330904006958,,,,,,,
4634688000.0,78.36,0.7799999713897705,12041169408.0,1743.3617226087424,144.0,0.009582426398992538,593920.0,1285.3292348384857,1.1156006674006846e-14,0.0,2.309762716293335,-0.023097623139619827,0.018726259469985962,-0.023097626864910126,3.725290298461914e-09,0.0,-0.02993551827967167,0.19122056663036346,0.8440448984015093,0.37492913007736206,0.4873993694782257,0.34499359130859375,0.48421117663383484,2.3494837284088135,0.9970617294311523,,,,,,,
4634688000.0,73.19,0.9200000166893005,12041169408.0,1813.401964188944,145.0,0.006194647401571274,598016.0,1287.5879728794098,1.1057127435876168e-14,0.0,2.3773531913757324,-0.023773537948727608,0.024606477469205856,-0.02377353049814701,-7.450580596923828e-09,0.0,-0.019251741468906403,0.22102998197078705,0.8157535456587509,0.3193657696247101,0.4696562886238098,0.3001140356063843,0.5149340033531189,2.2587380409240723,0.9971408843994141,,,,,,,
4634688000.0,71.88,0.8500000238418579,12041169408.0,1788.9540083288002,146.0,0.00791479367762804,602112.0,1289.8775789737701,1.1548054179577605e-14,0.0,2.3414533138275146,-0.023414527997374535,0.009622059762477875,-0.023414531722664833,4.0745362639427185e-09,0.0,0.016425233334302902,0.13776417076587677,0.902905230606389,0.30413734912872314,0.4351668357849121,0.32056260108947754,0.44211816787719727,2.2896060943603516,0.9969868659973145,,,,,,,
4634688000.0,71.76,0.800000011920929,12041169408.0,1744.9660124145425,147.0,0.006532351020723581,606208.0,1292.2249026298523,1.1851630787873546e-14,0.0,2.360523223876953,-0.023605240508913994,0.023353852331638336,-0.023605231195688248,-9.313225746154785e-09,0.0,-0.00469245808199048,0.21609507501125336,0.777077554745563,0.2313758134841919,0.3965945243835449,0.2266833633184433,0.4576863944530487,2.3473236560821533,0.9971790313720703,,,,,,,
4634688000.0,73.32,0.8500000238418579,12041169408.0,1829.8297738364304,148.0,0.008415991440415382,610304.0,1294.4633622169495,1.2285311656867748e-14,0.0,2.3615617752075195,-0.023615611717104912,0.010569905862212181,-0.02361561730504036,5.587935447692871e-09,0.0,0.035536617040634155,0.14100289344787598,0.8911038747648329,0.2866935133934021,0.4110109508037567,0.32223016023635864,0.42728909850120544,2.238459587097168,0.9971673488616943,,,,,,,
4634688000.0,78.84,1.100000023841858,12041169408.0,1821.8998895504549,149.0,0.008744245395064354,614400.0,1296.7115647792816,1.1117842757535357e-14,0.0,2.358562469482422,-0.023585615679621696,0.013558818027377129,-0.023585624992847443,9.313225746154785e-09,0.0,0.01883365772664547,0.16361378133296967,0.8257165858804998,0.23271530866622925,0.3484613001346588,0.25154897570610046,0.391914963722229,2.2482025623321533,0.9970078468322754,,,,,,,
4634688000.0,75.06,0.949999988079071,12041169408.0,1792.9088125687413,150.0,0.007822863757610321,618496.0,1298.9961204528809,1.1969591984239969e-14,0.0,2.318248987197876,-0.02318248152732849,0.008892150595784187,-0.023182488977909088,6.51925802230835e-09,0.0,0.01772220805287361,0.13219110667705536,0.8836458503156829,0.2345859706401825,0.38091275095939636,0.252308189868927,0.38753536343574524,2.284555673599243,0.9970946311950684,,,,,,,
4634688000.0,73.64,0.9100000262260437,12041169408.0,1738.6873826402382,151.0,0.008935468271374702,622592.0,1301.3519206047058,1.2070205945846624e-14,0.0,2.3043580055236816,-0.023043572902679443,0.008211659267544746,-0.02304358035326004,7.450580596923828e-09,0.0,0.031033938750624657,0.1243542954325676,0.8789468498889103,0.21927160024642944,0.33219921588897705,0.25030553340911865,0.35741496086120605,2.355800151824951,0.9972884654998779,,,,,,,
4634688000.0,74.92,1.0700000524520874,12041169408.0,1837.537277422859,152.0,0.008950242772698402,626688.0,1303.5809910297394,1.3157877565284082e-14,0.0,2.287262439727783,-0.02287263050675392,0.01617368869483471,-0.022872623056173325,-7.450580596923828e-09,0.0,0.03444333374500275,0.17654643952846527,0.7902769184648983,0.17784884572029114,0.3396106958389282,0.2122921645641327,0.3855101764202118,2.2290704250335693,0.9969499111175537,,,,,,,
4634688000.0,75.06,1.0800000429153442,12041169408.0,1825.2735789318901,153.0,0.00975231733173132,630784.0,1305.8250381946564,1.2328679743767168e-14,0.0,2.338756561279297,-0.023387562483549118,0.009535280056297779,-0.023387564346194267,1.862645149230957e-09,0.0,0.0447642020881176,0.13065563142299652,0.8820859086578067,0.2328597754240036,0.34879228472709656,0.2776239812374115,0.3804917633533478,2.244047164916992,0.9972121715545654,,,,,,,
4634688000.0,77.98,1.1699999570846558,12041169408.0,1840.1106456888172,154.0,0.010398400016129017,634880.0,1308.0509912967682,1.3074610838437195e-14,0.0,2.3078055381774902,-0.02307807095348835,0.014434058219194412,-0.023078054189682007,-1.6763806343078613e-08,0.0,0.039180755615234375,0.16534708440303802,0.856089974097918,0.273773193359375,0.38305723667144775,0.3129539489746094,0.43586403131484985,2.2259531021118164,0.9972553253173828,,,,,,,
4634688000.0,76.83,1.1699999570846558,12041169408.0,1793.521244984653,155.0,0.009781314060091972,638976.0,1310.3347668647766,1.358808898732633e-14,0.0,2.2354397773742676,-0.02235439233481884,0.021445605903863907,-0.022354397922754288,5.587935447692871e-09,0.0,0.025067932903766632,0.20560429990291595,0.8118470071430272,0.24957573413848877,0.39585402607917786,0.2746436595916748,0.473998099565506,2.283775568008423,0.9970498085021973,,,,,,,
4634688000.0,77.06,1.2000000476837158,12041169408.0,1786.8691145850505,156.0,0.009796783328056335,643072.0,1312.6270444393158,1.3475331961387838e-14,0.0,2.2485899925231934,-0.02248590998351574,0.014170580543577671,-0.022485898807644844,-1.1175870895385742e-08,0.0,0.041252121329307556,0.16323581337928772,0.8566516594295465,0.24289007484912872,0.37087368965148926,0.2841421961784363,0.43114081025123596,2.2922775745391846,0.9970083236694336,,,,,,,
4634688000.0,74.58,1.0199999809265137,12041169408.0,1785.5106457985512,157.0,0.007911990396678448,647168.0,1314.921066045761,1.3693907119360915e-14,0.0,2.236915111541748,-0.022369150072336197,0.03284118324518204,-0.022369150072336197,0.0,0.0,-0.007397594396024942,0.25621020793914795,0.7323545040100883,0.2638387084007263,0.37481826543807983,0.2564411163330078,0.49524086713790894,2.2940216064453125,0.9970912933349609,,,,,,,
4634688000.0,75.47,1.0299999713897705,12041169408.0,1815.942680041042,158.0,0.009826702997088432,651264.0,1317.1766438484192,1.3891665595622271e-14,0.0,2.2436773777008057,-0.02243676595389843,0.008120782673358917,-0.022436773404479027,7.450580596923828e-09,0.0,0.015232852660119534,0.12654419243335724,0.9238408126760813,0.3190581798553467,0.43679872155189514,0.3342910408973694,0.4585441052913666,2.255577802658081,0.9971885681152344,,,,,,,
4634688000.0,75.38,1.1799999475479126,12041169408.0,1827.300414730153,159.0,0.009687228128314018,655360.0,1319.4182019233704,1.3640130691605634e-14,0.0,2.319242000579834,-0.02319241687655449,0.010194649919867516,-0.02319241873919964,1.862645149230957e-09,0.0,0.01374893169850111,0.14214499294757843,0.9084166758929338,0.44483721256256104,0.4572559595108032,0.4585861563682556,0.4697030782699585,2.241558074951172,0.9975745677947998,,,,,,,
,,,,,,,,,,,,,,,,,,,,,,,,,,0.0029674172401428223,0.02524888515472412,0.020332960411906242,0.0029674172401428223,0.02524888515472412,0.020332960411906242,
,,,,,,,,,,,,,,,,,,,,,,,,,,0.0017798009794205427,0.01887437514960766,0.018056625500321388,0.0017798009794205427,0.01887437514960766,0.018056625500321388,
,,,,,,,,,,,,,,,,,,,,,,,,,,0.0014703413471579552,0.017947126179933548,0.016942258924245834,0.0014703413471579552,0.017947126179933548,0.016942258924245834,
,,,,,,,,,,,,,,,,,,,,,,,,,,0.0011968177277594805,0.016741376370191574,0.015859046950936317,0.0011968177277594805,0.016741376370191574,0.015859046950936317,
,,,,,,,,,,,,,,,,,,,,,,,,,,0.0011692888801917434,0.016161978244781494,0.01527018565684557,0.0011692888801917434,0.016161978244781494,0.01527018565684557,
,,,,,,,,,,,,,,,,,,,,,,,,,,0.001572712673805654,0.015774844214320183,0.014774792827665806,0.001572712673805654,0.015774844214320183,0.014774792827665806,
,,,,,,,,,,,,,,,,,,,,,,,,,,,,,,,,-1.8
4634688000.0,76.66,1.2200000286102295,11990521856.0,16.813192685814812,160.0,0.011135581880807877,659456.0,1563.0364174842834,1.2208983823924768e-14,0.0,2.25235652923584,-0.022523585706949234,0.004931960254907608,-0.022523565217852592,-1.955777406692505e-08,0.0,0.031077854335308075,0.09434118866920471,0.9613814318340833,0.3492582440376282,0.4611150622367859,0.38033610582351685,0.480068564414978,243.6182155609131,0.9976911544799805,,,,,,,
4634688000.0,73.31,1.1399999856948853,12041169408.0,1675.9969925478051,161.0,0.009722061455249786,663552.0,1565.4803359508514,1.4779844015322396e-14,0.0,2.118720769882202,-0.0211871936917305,0.005302825476974249,-0.021187206730246544,1.3969838619232178e-08,0.0,0.028920074924826622,0.09885173290967941,0.9551487722862816,0.30151376128196716,0.44769027829170227,0.33043384552001953,0.46676376461982727,2.443918466567993,0.9975578784942627,,,,,,,
4634688000.0,73.46,1.159999966621399,12041169408.0,1721.8956214607158,162.0,0.010375792160630226,667648.0,1567.8591096401215,1.3421555533632556e-14,0.0,2.2325687408447266,-0.022325702011585236,0.006981693673878908,-0.022325687110424042,-1.4901161193847656e-08,0.0,0.015383213758468628,0.11717549711465836,0.9508471301625407,0.4019436240196228,0.5054792165756226,0.41732683777809143,0.5285211205482483,2.3787736892700195,0.9976649284362793,,,,,,,
4634688000.0,79.47,1.440000057220459,12041169408.0,1684.2739850333764,163.0,0.013108959421515465,671744.0,1570.2910180091858,1.3671355714173217e-14,0.0,2.222637176513672,-0.022226372733712196,0.008494620211422443,-0.022226370871067047,-1.862645149230957e-09,0.0,0.007104209158569574,0.13016493618488312,0.9447185054195292,0.4862881898880005,0.5415957570075989,0.4933924376964569,0.5536101460456848,2.431908369064331,0.997783899307251,,,,,,,
4634688000.0,79.68,1.3799999952316284,12041169408.0,1656.308954298058,164.0,0.009449182078242302,675840.0,1572.7639865875244,1.3020834410681914e-14,0.0,2.2442376613616943,-0.022442370653152466,0.003892331151291728,-0.022442376241087914,5.587935447692871e-09,0.0,0.005947970785200596,0.08804076910018921,0.9673268948515271,0.425628125667572,0.485748291015625,0.43157607316970825,0.4870668649673462,2.472968578338623,0.9976208209991455,,,,,,,
4634688000.0,80.22,1.1100000143051147,12041169408.0,1654.8821257402114,165.0,0.00930604338645935,679936.0,1575.239087343216,1.3933298959045715e-14,0.0,2.182572364807129,-0.021825725212693214,0.005451313219964504,-0.021825723350048065,-1.862645149230957e-09,0.0,0.008720649406313896,0.10406354069709778,0.9581895801757739,0.4059106409549713,0.5005243420600891,0.41463127732276917,0.5089280009269714,2.4751007556915283,0.9975731372833252,,,,,,,
4634688000.0,77.7,1.2400000095367432,12041169408.0,1614.4305615723883,166.0,0.012695398181676865,684032.0,1577.7762048244476,1.413105743530707e-14,0.0,2.199284791946411,-0.021992839872837067,0.006216038018465042,-0.021992847323417664,7.450580596923828e-09,0.0,-0.015432007610797882,0.11043960601091385,0.9581506719526731,0.4885752201080322,0.5379188656806946,0.4731432795524597,0.5398593544960022,2.5371174812316895,0.9973726272583008,,,,,,,
4634688000.0,71.76,1.3200000524520874,12041169408.0,1650.1575234308784,167.0,0.010141665115952492,688128.0,1580.2583920955658,1.4705250905855394e-14,0.0,2.183882474899292,-0.02183881588280201,0.007272965274751186,-0.021838823333382607,7.450580596923828e-09,0.0,0.00910838134586811,0.12027676403522491,0.9539418210909617,0.5008065700531006,0.5552414655685425,0.5099148750305176,0.5604389905929565,2.482187271118164,0.9974370002746582,,,,,,,
4634688000.0,88.6,1.3200000524520874,12041169408.0,1658.3872981624486,168.0,0.010158893652260303,692224.0,1582.7282614707947,1.2830014828324465e-14,0.0,2.279298782348633,-0.022792981937527657,0.011324201710522175,-0.022792987525463104,6.05359673500061e-09,0.0,-0.00599572341889143,0.15039274096488953,0.9183448130253598,0.5157690644264221,0.5351884365081787,0.5097733736038208,0.5263020396232605,2.469869375228882,0.9977884292602539,,,,,,,
4634688000.0,90.65,1.399999976158142,12041169408.0,1685.6130344601581,169.0,0.010660386644303799,696320.0,1585.1582379341125,1.5498019534376795e-14,0.0,2.180874824523926,-0.021808739751577377,0.007194607984274626,-0.021808747202157974,7.450580596923828e-09,0.0,-0.02791399136185646,0.11667625606060028,0.9670154762815899,0.5500690937042236,0.6645375490188599,0.5221551656723022,0.6424323320388794,2.429976463317871,0.9973645210266113,,,,,,,
4634688000.0,73.09,1.1699999570846558,12041169408.0,1688.4276161245082,170.0,0.010192763060331345,700416.0,1587.5841636657715,1.48318857196017e-14,0.0,2.1855804920196533,-0.021855805069208145,0.0058221579529345036,-0.021855805069208145,-9.313225746154785e-10,0.0,-0.0069200340658426285,0.10769986361265182,0.9571448018935844,0.4220641255378723,0.5241969227790833,0.41514408588409424,0.5202515721321106,2.4259257316589355,0.9974899291992188,,,,,,,
4634688000.0,80.89,1.2799999713897705,12041169408.0,1624.8249785356904,171.0,0.010370133444666862,704512.0,1590.1050505638123,1.5465059788333235e-14,0.0,2.170322895050049,-0.021703239530324936,0.007343362085521221,-0.02170322835445404,-1.1175870895385742e-08,0.0,-0.007337407674640417,0.12098124623298645,0.9487292189973339,0.5140866041183472,0.5377511978149414,0.5067492127418518,0.5342974066734314,2.5208868980407715,0.9980714321136475,,,,,,,
4634688000.0,88.79,1.3899999856948853,12041169408.0,1657.0658853641194,172.0,0.00941294152289629,708608.0,1592.576889514923,1.476770095099056e-14,0.0,2.159930467605591,-0.021599318832159042,0.008866124786436558,-0.02159930393099785,-1.4901161193847656e-08,0.0,0.010460292920470238,0.1327672302722931,0.9312093378224022,0.44278305768966675,0.513893723487854,0.4532433748245239,0.5062046647071838,2.47183895111084,0.9978251457214355,,,,,,,
4634688000.0,89.64,1.4299999475479126,12041169408.0,1631.5244436606483,173.0,0.011378442868590355,712704.0,1595.087424993515,1.526730131207188e-14,0.0,2.1387181282043457,-0.02138718217611313,0.006924452260136604,-0.02138718031346798,-1.862645149230957e-09,0.0,0.007079301867634058,0.11748258769512177,0.9610917057198036,0.5690236687660217,0.5961950421333313,0.5761029720306396,0.5955968499183655,2.510535478591919,0.9976565837860107,,,,,,,
4634688000.0,88.34,1.4299999475479126,12041169408.0,1675.527705910074,174.0,0.010257868096232414,716800.0,1597.5320279598236,1.7257029139017277e-14,0.0,2.120903253555298,-0.021209031343460083,0.0063138497062027454,-0.021209031343460083,0.0,0.0,0.00385574484243989,0.11232057958841324,0.955865472973845,0.47036147117614746,0.5316103100776672,0.4742172062397003,0.5346506834030151,2.4446029663085938,0.9974362850189209,,,,,,,
4634688000.0,79.53,1.2200000286102295,12041169408.0,1677.2831149512965,175.0,0.010275155305862427,720896.0,1599.9740724563599,1.8591031492043442e-14,0.0,2.1201374530792236,-0.021201374009251595,0.007873774506151676,-0.021201374009251595,0.0,0.0,-0.01135949231684208,0.12498929351568222,0.9373667672118876,0.4381341338157654,0.49673399329185486,0.4267745912075043,0.49942517280578613,2.442044496536255,0.9978306293487549,,,,,,,
4634688000.0,80.06,1.2300000190734863,12041169408.0,1639.8916693441586,176.0,0.009802183136343956,724992.0,1602.4717984199524,1.621792977690717e-14,0.0,2.1250619888305664,-0.021250618621706963,0.006627903785556555,-0.021250618621706963,0.0,0.0,-0.01616911217570305,0.11400675028562546,0.9565842554999806,0.49045461416244507,0.5514926314353943,0.4742854833602905,0.5471506714820862,2.4977259635925293,0.9974610805511475,,,,,,,
4634688000.0,78.06,1.190000057220459,12041169408.0,1683.1230442852834,177.0,0.010800730437040329,729088.0,1604.905369758606,1.7128659601794993e-14,0.0,2.1267788410186768,-0.021267792209982872,0.006955508142709732,-0.021267788484692574,-3.725290298461914e-09,0.0,-0.00785304419696331,0.11769761145114899,0.9554652919126876,0.4916309416294098,0.5606753826141357,0.48377788066864014,0.5577227473258972,2.4335713386535645,0.9975965023040771,,,,,,,
4634688000.0,81.65,1.340000033378601,12041169408.0,1684.3960192261839,178.0,0.012124462053179741,733184.0,1607.3371019363403,1.7709791966247224e-14,0.0,2.120041608810425,-0.021200425922870636,0.005679724738001823,-0.02120041474699974,-1.0244548320770264e-08,0.0,0.0007411349797621369,0.10659115016460419,0.9615277326682283,0.49496036767959595,0.5355083346366882,0.49570149183273315,0.5434345602989197,2.431732177734375,0.9977099895477295,,,,,,,
4634688000.0,80.16,1.3700000047683716,12041169408.0,1687.3457323087132,179.0,0.009355025365948677,737280.0,1609.7645831108093,1.8306536841983245e-14,0.0,2.140943765640259,-0.02140944078564644,0.016429083421826363,-0.02140943706035614,-3.725290298461914e-09,0.0,0.00045487331226468086,0.18128977715969086,0.8803064216574172,0.491915225982666,0.47359058260917664,0.4923701286315918,0.52400803565979,2.427481174468994,0.9975004196166992,,,,,,,
4634688000.0,81.19,1.2599999904632568,12041169408.0,1648.4525522231443,180.0,0.010684709064662457,741376.0,1612.2493376731873,1.829786322460336e-14,0.0,2.0824618339538574,-0.020824626088142395,0.00539746368303895,-0.020824618637561798,-7.450580596923828e-09,0.0,0.011383922770619392,0.10328570753335953,0.9577137290541398,0.4428199529647827,0.47864559292793274,0.45420390367507935,0.5022738575935364,2.4847545623779297,0.9978272914886475,,,,,,,
4634688000.0,85.89,1.3300000429153442,12041169408.0,1687.2711593075026,181.0,0.010371224954724312,745472.0,1614.6769261360168,2.053739123208942e-14,0.0,2.084702968597412,-0.020847029983997345,0.0153428940102458,-0.020847029983997345,0.0,0.0,0.00904369167983532,0.17496134340763092,0.8894028750392817,0.4646306335926056,0.46881723403930664,0.47367429733276367,0.5261023044586182,2.42758846282959,0.9977622032165527,,,,,,,
4634688000.0,83.78,1.3300000429153442,12041169408.0,1676.4678508982247,182.0,0.009892856702208519,749568.0,1617.1201581954956,2.0887805374236734e-14,0.0,2.069727897644043,-0.02069729007780552,0.008915068581700325,-0.020697278901934624,-1.1175870895385742e-08,0.0,0.023172561079263687,0.13151955604553223,0.9302636247202757,0.4919831454753876,0.46683740615844727,0.5151556730270386,0.49803587794303894,2.4432320594787598,0.9975390434265137,,,,,,,
4634688000.0,86.37,1.2799999713897705,12041169408.0,1619.4622367847153,183.0,0.011395487003028393,753664.0,1619.6493928432465,2.281855260299892e-14,0.0,2.0797557830810547,-0.020797552540898323,0.008459851145744324,-0.02079755812883377,5.587935447692871e-09,0.0,0.005772769916802645,0.1299634575843811,0.9454460738223208,0.6172382235527039,0.5220304131507874,0.6230109930038452,0.5564270615577698,2.5292346477508545,0.9979250431060791,,,,,,,
4634688000.0,88.39,1.4199999570846558,12041169408.0,1609.6686150551259,184.0,0.010088586248457432,757760.0,1622.1940159797668,2.0568616254657002e-14,0.0,2.0517892837524414,-0.020517904311418533,0.015550177544355392,-0.020517893135547638,-1.1175870895385742e-08,0.0,0.010105140507221222,0.17608468234539032,0.894257101750814,0.5374794006347656,0.47190165519714355,0.5475846529006958,0.5414968729019165,2.5446231365203857,0.9977622032165527,,,,,,,
4634688000.0,84.99,1.2699999809265137,12041169408.0,1694.294914887167,185.0,0.009772016666829586,761856.0,1624.6115407943726,2.237793284010081e-14,0.0,2.0089402198791504,-0.020089395344257355,0.017741365358233452,-0.020089400932192802,4.889443516731262e-09,0.0,-0.0014092762721702456,0.18838632106781006,0.905415408517419,0.6021024584770203,0.552380383014679,0.6006931662559509,0.6125466823577881,2.417524814605713,0.9977853298187256,,,,,,,
4634688000.0,86.73,1.2100000381469727,12041169408.0,1678.1614618519152,186.0,0.008792039006948471,765952.0,1627.0523071289062,2.2133336829988082e-14,0.0,2.067650318145752,-0.020676497370004654,0.009517509490251541,-0.0206765029579401,6.51925802230835e-09,0.0,0.017202258110046387,0.13690754771232605,0.9515299933492913,0.6167172193527222,0.5848642587661743,0.6339194774627686,0.6218574643135071,2.4407663345336914,0.9975612163543701,,,,,,,
4634688000.0,91.38,1.3200000524520874,12041169408.0,1664.0860077488105,187.0,0.011960035189986229,770048.0,1629.513718366623,2.2320686965393577e-14,0.0,2.082801342010498,-0.020828012377023697,0.016076359897851944,-0.020828012377023697,0.0,0.0,0.013346617110073566,0.17883622646331787,0.9325802881359456,0.9428663849830627,0.6424502730369568,0.9562130570411682,0.6887507438659668,2.461411237716675,0.9974727630615234,,,,,,,
4634688000.0,98.05,1.5399999618530273,12041169408.0,1646.6492956303364,188.0,0.010644933208823204,774144.0,1632.0011940002441,2.0072485340527635e-14,0.0,2.0360827445983887,-0.02036084607243538,0.020065251737833023,-0.020360827445983887,-1.7695128917694092e-08,0.0,-0.046347565948963165,0.1949145495891571,0.9352407059325374,0.7596745491027832,0.7443193793296814,0.7133270502090454,0.765937328338623,2.487475633621216,0.9974701404571533,,,,,,,
4634688000.0,93.98,1.5299999713897705,12041169408.0,1621.6471325605626,189.0,0.011159424670040607,778240.0,1634.527020931244,2.166149204452239e-14,0.0,2.0477497577667236,-0.020477475598454475,0.02182113565504551,-0.020477497950196266,2.2351741790771484e-08,0.0,-0.03684902936220169,0.20565687119960785,0.9303428843398271,0.8717705607414246,0.752573549747467,0.8349214792251587,0.779220700263977,2.525826930999756,0.9975993633270264,,,,,,,
4634688000.0,82.27,1.2000000476837158,12041169408.0,1666.2862226274276,190.0,0.009174483828246593,782336.0,1636.9851820468903,2.3534993398577342e-14,0.0,2.01772403717041,-0.02017725072801113,0.02193363383412361,-0.020177239552140236,-1.1175870895385742e-08,0.0,-0.02878258191049099,0.20748335123062134,0.9277831210891239,0.7205755710601807,0.7249147295951843,0.6917930245399475,0.7720828652381897,2.4581611156463623,0.9975628852844238,,,,,,,
4634688000.0,83.69,1.25,12041169408.0,1692.1906563769921,191.0,0.011859240010380745,786432.0,1639.4057130813599,2.2136806276940035e-14,0.0,2.0400118827819824,-0.020400112494826317,0.011382116936147213,-0.020400118082761765,5.587935447692871e-09,0.0,-0.0033876108936965466,0.15085859596729279,0.9530950195499794,0.780331015586853,0.6651172041893005,0.7769433856010437,0.6965632438659668,2.4205310344696045,0.997687816619873,,,,,,,
,,,,,,,,,,,,,,,,,,,,,,,,,,0.00953662022948265,0.03632461279630661,0.03894989937543869,0.00953662022948265,0.03632461279630661,0.03894989937543869,
,,,,,,,,,,,,,,,,,,,,,,,,,,0.006896804086863995,0.03076261095702648,0.03233777731657028,0.006896804086863995,0.03076261095702648,0.03233777731657028,
,,,,,,,,,,,,,,,,,,,,,,,,,,0.003993122838437557,0.028300415724515915,0.028975706547498703,0.003993122838437557,0.028300415724515915,0.028975706547498703,
,,,,,,,,,,,,,,,,,,,,,,,,,,0.003294029040262103,0.02692408114671707,0.02699325978755951,0.003294029040262103,0.02692408114671707,0.02699325978755951,
,,,,,,,,,,,,,,,,,,,,,,,,,,0.0033234767615795135,0.025693360716104507,0.025821056216955185,0.0033234767615795135,0.025693360716104507,0.025821056216955185,
,,,,,,,,,,,,,,,,,,,,,,,,,,0.0036042481660842896,0.026339832693338394,0.02578197605907917,0.0036042481660842896,0.026339832693338394,0.02578197605907917,
,,,,,,,,,,,,,,,,,,,,,,,,,,,,,,,,-1.55
4634708000.0,88.73,1.5700000524520874,11990521856.0,16.742178332151667,192.0,0.011539989151060581,790528.0,1884.0572702884674,1.7473869573514378e-14,0.0,2.048152446746826,-0.02048151195049286,0.005279150791466236,-0.020481523126363754,1.1175870895385742e-08,0.0,0.015377575531601906,0.10160881280899048,0.9661408223536562,0.5477616786956787,0.536153256893158,0.5631392002105713,0.5521958470344543,244.65155720710754,0.9976258277893066,,,,,,,
4634708000.0,92.51,1.4800000190734863,12041169408.0,1633.8911922893444,193.0,0.011052828282117844,794624.0,1886.5641691684723,1.8179902028236938e-14,0.0,2.076107978820801,-0.02076108008623123,0.017701569944620132,-0.02076108008623123,0.0,0.0,0.028168940916657448,0.1860594004392624,0.892053502868674,0.5862069725990295,0.5189875960350037,0.6143759489059448,0.5663010478019714,2.506898880004883,0.9975752830505371,,,,,,,
4634708000.0,97.22,1.559999942779541,12041169408.0,1700.9424544410283,194.0,0.009557921439409256,798720.0,1888.9722459316254,1.7281748948549946e-14,0.0,2.0783944129943848,-0.020783942192792892,0.011426294222474098,-0.02078394405543804,1.862645149230957e-09,0.0,0.01987311989068985,0.14987705647945404,0.9287161853473898,0.5632688999176025,0.5173113942146301,0.5831419825553894,0.5613576769828796,2.408076763153076,0.9975800514221191,,,,,,,
4634708000.0,102.86,1.5499999523162842,12041169408.0,1650.3811981147853,195.0,0.009905860759317875,802816.0,1891.4540967941284,1.854766340514402e-14,0.0,2.046337604522705,-0.020463377237319946,0.012433130294084549,-0.020463375374674797,-1.862645149230957e-09,0.0,0.0027434849180281162,0.157685786485672,0.9270834530558711,0.4791146516799927,0.5387781858444214,0.48185813426971436,0.5839551091194153,2.4818508625030518,0.9977786540985107,,,,,,,
4634708000.0,97.09,1.2200000286102295,12041169408.0,1607.6610201276387,196.0,0.007733630016446114,806912.0,1894.001897573471,1.706013802449391e-14,0.0,2.0567634105682373,-0.0205676332116127,0.022467171773314476,-0.0205676332116127,0.0,0.0,-0.008816268295049667,0.21181966364383698,0.8667037649397364,0.48071518540382385,0.505114734172821,0.4718989133834839,0.5801727175712585,2.5478007793426514,0.9976174831390381,,,,,,,
4634708000.0,88.89,1.2799999713897705,12041169408.0,1635.0397184436358,197.0,0.011279743164777756,811008.0,1896.5070354938507,1.7933571294648232e-14,0.0,2.04150390625,-0.020415030419826508,0.006422876380383968,-0.020415037870407104,7.450580596923828e-09,0.0,0.010891228914260864,0.11282837390899658,0.963777241082625,0.5910860300064087,0.5767176747322083,0.6019772291183472,0.5928264260292053,2.5051379203796387,0.9982914924621582,,,,,,,
4634708000.0,89.4,1.4700000286102295,12041169408.0,1663.6457596706925,198.0,0.011295551434159279,815104.0,1898.9690980911255,1.5874454528663762e-14,0.0,2.093433380126953,-0.020934324711561203,0.007757626473903656,-0.02093433402478695,9.313225746154785e-09,0.0,0.01591595634818077,0.1235542818903923,0.9572122660244006,0.6351275444030762,0.5819411277770996,0.6510435342788696,0.5973078608512878,2.4620625972747803,0.9973089694976807,,,,,,,
4634708000.0,96.16,1.5499999523162842,12041169408.0,1689.9011000966143,199.0,0.011141362600028515,819200.0,1901.3929085731506,1.6974269212433057e-14,0.0,2.0685911178588867,-0.02068590559065342,0.006589904893189669,-0.020685911178588867,5.587935447692871e-09,0.0,0.015122989192605019,0.11381681263446808,0.9622119068988664,0.5822255611419678,0.569623589515686,0.5973485708236694,0.5855027437210083,2.4238104820251465,0.9976565837860107,,,,,,,
4634708000.0,96.4,1.440000057220459,12041169408.0,1647.2802155249576,200.0,0.009298862889409065,823296.0,1903.8794314861298,1.698988172371685e-14,0.0,2.05737042427063,-0.020573697984218597,0.006827370263636112,-0.020573703572154045,5.587935447692871e-09,0.0,0.016317302361130714,0.11572275310754776,0.9611539014164349,0.541900634765625,0.5710081458091736,0.5582179427146912,0.5871445536613464,2.486522912979126,0.9976613521575928,,,,,,,
4634708000.0,101.4,1.409999966621399,12041169408.0,1678.5951579684388,201.0,0.010496948845684528,827392.0,1906.3195672035217,1.493076495773238e-14,0.0,2.0970754623413086,-0.02097075618803501,0.006075805984437466,-0.020970754325389862,-1.862645149230957e-09,0.0,0.0021206189412623644,0.11022740602493286,0.9655143084221351,0.6364468336105347,0.5797755122184753,0.6385674476623535,0.5935674905776978,2.4401357173919678,0.9974172115325928,,,,,,,
4634708000.0,102.38,1.4500000476837158,12041169408.0,1694.9454904142112,202.0,0.00779788289219141,831488.0,1908.7361640930176,1.5839760059144226e-14,0.0,2.093197822570801,-0.02093198522925377,0.013782419264316559,-0.020931977778673172,-7.450580596923828e-09,0.0,0.02846101112663746,0.16358894109725952,0.9332677488693738,0.6473375558853149,0.5880743861198425,0.6757985353469849,0.6332657933235168,2.4165968894958496,0.997525691986084,,,,,,,
4634708000.0,106.96,1.399999976158142,12041169408.0,1659.2095847801227,203.0,0.009335977956652641,835584.0,1911.2048094272614,1.5222198501696482e-14,0.0,2.0935492515563965,-0.02093549259006977,0.018401358276605606,-0.02093549259006977,0.0,0.0,-0.013137971982359886,0.1914132982492447,0.9192854922046064,0.6498061418533325,0.6267753839492798,0.6366682052612305,0.6737461686134338,2.4686453342437744,0.9976067543029785,,,,,,,
4634708000.0,97.8,1.4800000190734863,12041169408.0,1637.342557925961,204.0,0.01427551731467247,839680.0,1913.706423997879,1.5324547186779114e-14,0.0,2.1231470108032227,-0.021231472492218018,0.008339150808751583,-0.02123146876692772,-3.725290298461914e-09,0.0,-0.02910972759127617,0.1258363574743271,0.9697242187298009,0.8168697357177734,0.7234700918197632,0.7877600193023682,0.7232000827789307,2.501614570617676,0.9978232383728027,,,,,,,
4634708000.0,89.73,1.649999976158142,12041169408.0,1670.1874886255282,205.0,0.011400661431252956,843776.0,1916.158843278885,1.6806001035263307e-14,0.0,2.0754826068878174,-0.02075483277440071,0.007114466279745102,-0.020754825323820114,-6.51925802230835e-09,0.0,-0.013890765607357025,0.11848799884319305,0.9719142047856775,0.6308702230453491,0.7043786644935608,0.6169794797897339,0.7070189118385315,2.4524192810058594,0.9975082874298096,,,,,,,
4634708000.0,81.61,1.4199999570846558,12041169408.0,1689.4937748367556,206.0,0.012608164921402931,847872.0,1918.5832381248474,1.6099968580540747e-14,0.0,2.1160802841186523,-0.021160811185836792,0.010273929685354233,-0.021160801872611046,-9.313225746154785e-09,0.0,0.00883936882019043,0.1430899202823639,0.9560951314373316,0.7705247402191162,0.665256917476654,0.7793640494346619,0.6828929781913757,2.4243948459625244,0.9974820613861084,,,,,,,
4634708000.0,93.16,1.649999976158142,12041169408.0,1657.9892610117672,207.0,0.012281139381229877,851968.0,1921.0537004470825,1.5092094240998222e-14,0.0,2.116764545440674,-0.02116764709353447,0.010310422629117966,-0.02116764523088932,-1.862645149230957e-09,0.0,-0.005109477322548628,0.14352618157863617,0.9616498634051858,0.8205170631408691,0.7095998525619507,0.8154075741767883,0.7329049706459045,2.4704623222351074,0.9979643821716309,,,,,,,
4634708000.0,97.54,1.6299999952316284,12041169408.0,1691.400137912186,208.0,0.010761735960841179,856064.0,1923.47536277771,1.676610239531584e-14,0.0,2.1017587184906006,-0.021017586812376976,0.009754177182912827,-0.021017586812376976,0.0,0.0,-0.007900634780526161,0.13946571946144104,0.9631002705719609,0.7607277631759644,0.7076946496963501,0.7528271079063416,0.7260320782661438,2.4216623306274414,0.9976224899291992,,,,,,,
4634708000.0,90.83,1.4199999570846558,12041169408.0,1712.1541229493484,209.0,0.010433853603899479,860160.0,1925.8676707744598,1.572873775668171e-14,0.0,2.1328916549682617,-0.02132890559732914,0.016990013420581818,-0.021328916773200035,1.1175870895385742e-08,0.0,-0.014005925506353378,0.18382631242275238,0.9441663915062899,0.7564501762390137,0.7451642751693726,0.7424442768096924,0.7779645919799805,2.392307996749878,0.9970991611480713,,,,,,,
4634708000.0,95.78,1.4299999475479126,12041169408.0,1729.829852519303,210.0,0.010105791501700878,864256.0,1928.2355337142944,1.6384463230600943e-14,0.0,2.128615379333496,-0.021286161616444588,0.013963875360786915,-0.02128615416586399,-7.450580596923828e-09,0.0,-0.02644745074212551,0.1650301069021225,0.9556448179728324,0.9132305383682251,0.7625787258148193,0.8867831230163574,0.7835937142372131,2.3678629398345947,0.9976253509521484,,,,,,,
4634708000.0,91.62,1.2799999713897705,12041169408.0,1656.5918038966074,211.0,0.01080622710287571,868352.0,1930.7080800533295,1.7121720707891086e-14,0.0,2.083266496658325,-0.020832650363445282,0.009212136268615723,-0.020832665264606476,1.5366822481155396e-08,0.0,0.016061661764979362,0.13479885458946228,0.9719503055965323,0.9139779806137085,0.7876232862472534,0.930039644241333,0.8048633337020874,2.472546339035034,0.9973936080932617,,,,,,,
4634708000.0,104.46,1.5800000429153442,12041169408.0,1618.4723919762725,212.0,0.011850564740598202,872448.0,1933.2388615608215,1.7121720707891086e-14,0.0,2.065248489379883,-0.02065247669816017,0.012838899157941341,-0.02065248414874077,7.450580596923828e-09,0.0,-0.02151319943368435,0.15881164371967316,0.958717316139397,0.8582892417907715,0.7745545506477356,0.836776077747345,0.7816249132156372,2.5307815074920654,0.9977729320526123,,,,,,,
4634708000.0,100.99,1.409999966621399,12041169408.0,1667.4458024061678,213.0,0.0075647663325071335,876544.0,1935.6953132152557,1.7926632400744325e-14,0.0,2.052638053894043,-0.020526379346847534,0.02384912222623825,-0.020526379346847534,0.0,0.0,0.0023371465504169464,0.21841344237327576,0.9374229086873562,0.7661420702934265,0.805647611618042,0.7684792280197144,0.8731155395507812,2.456451654434204,0.9976975917816162,,,,,,,
4634708000.0,103.57,1.3799999952316284,12041169408.0,1641.3515576334703,214.0,0.01067163422703743,880640.0,1938.1908175945282,1.6915288614249846e-14,0.0,2.0316390991210938,-0.02031639590859413,0.01882847771048546,-0.020316390320658684,-5.587935447692871e-09,0.0,-0.009922405704855919,0.19382382929325104,0.9476252739323561,0.810980498790741,0.8220304250717163,0.8010580539703369,0.8469274640083313,2.495504379272461,0.997523307800293,,,,,,,
4634708000.0,98.14,1.4800000190734863,12041169408.0,1639.9818382560845,215.0,0.010169521905481815,884736.0,1940.6884062290192,1.8256229861179918e-14,0.0,2.018521547317505,-0.020185215398669243,0.012006307020783424,-0.020185215398669243,0.0,0.0,0.034656066447496414,0.15105344355106354,0.9696219702262043,0.9151214361190796,0.8570530414581299,0.9497774839401245,0.8666641712188721,2.497588634490967,0.9975628852844238,,,,,,,
4634708000.0,106.09,1.5700000524520874,12041169408.0,1630.7276597626942,216.0,0.011734137311577797,888832.0,1943.2001683712006,1.7388868123191514e-14,0.0,2.046436071395874,-0.020464368164539337,0.011174335144460201,-0.02046436071395874,-7.450580596923828e-09,0.0,0.0016768667846918106,0.14950357377529144,0.9686358411504281,0.8754523396492004,0.8253437876701355,0.8771291971206665,0.8441793322563171,2.5117621421813965,0.9976160526275635,,,,,,,
4634708000.0,104.5,1.5499999523162842,12041169408.0,1635.7281144005344,217.0,0.009503994137048721,892928.0,1945.7042520046234,1.791275461293651e-14,0.0,2.006864547729492,-0.020068645477294922,0.01647091843187809,-0.020068645477294922,-9.313225746154785e-10,0.0,0.016402335837483406,0.18077826499938965,0.958482839924248,0.8746141195297241,0.8608922362327576,0.8910164833068848,0.8872222304344177,2.5040836334228516,0.9974203109741211,,,,,,,
4634708000.0,97.1,1.4199999570846558,12041169408.0,1685.1456209372404,218.0,0.009687863290309906,897024.0,1948.1349024772644,1.76143821750685e-14,0.0,2.035783529281616,-0.02035783790051937,0.016241084784269333,-0.020357834175229073,-3.725290298461914e-09,0.0,0.009894383139908314,0.17997828125953674,0.9555371932465264,0.6655572652816772,0.8384992480278015,0.6754516363143921,0.8535356521606445,2.430650472640991,0.9972994327545166,,,,,,,
4634708000.0,93.8,1.350000023841858,12041169408.0,1598.933228300552,219.0,0.01212476845830679,901120.0,1950.6966104507446,1.9404616802276564e-14,0.0,1.9990818500518799,-0.019990818575024605,0.007435043342411518,-0.019990818575024605,0.0,0.0,-0.007057052571326494,0.12175345420837402,0.9806346883649487,0.7617752552032471,0.8778688311576843,0.7547181844711304,0.8749213218688965,2.5617079734802246,0.9974403381347656,,,,,,,
4634708000.0,79.98,1.4299999475479126,12041169408.0,1653.49578754785,220.0,0.012833330780267715,905216.0,1953.1737864017487,1.9307472287621863e-14,0.0,2.0278234481811523,-0.020278241485357285,0.008950641378760338,-0.020278234034776688,-7.450580596923828e-09,0.0,0.009241740219295025,0.13349241018295288,0.9810684893585877,0.9709774255752563,0.9530015587806702,0.9802191257476807,0.9702060222625732,2.4771759510040283,0.9975597858428955,,,,,,,
4634708000.0,90.83,1.5499999523162842,12041169408.0,1653.7907313083645,221.0,0.011633466929197311,909312.0,1955.6505205631256,1.7937040741600185e-14,0.0,2.0058693885803223,-0.020058702677488327,0.010569464415311813,-0.02005869336426258,-1.0244548320770264e-08,0.0,9.847106412053108e-05,0.14541003108024597,0.9782220557299467,1.0097882747650146,0.9564975500106812,1.0098867416381836,0.9853396415710449,2.476734161376953,0.9976561069488525,,,,,,,
4634708000.0,101.3,1.4600000381469727,12041169408.0,1648.7593072355844,222.0,0.007471204269677401,913408.0,1958.1348128318787,1.9637069748057456e-14,0.0,1.9944151639938354,-0.019944151863455772,0.04286566376686096,-0.019944151863455772,0.0,0.0,-0.01623232290148735,0.2923845052719116,0.9303612298946563,1.0005722045898438,1.026320219039917,0.9843398332595825,1.1079720258712769,2.4842922687530518,0.9976379871368408,,,,,,,
4634708000.0,106.72,1.5299999713897705,12041169408.0,1646.3004132073013,223.0,0.01200476661324501,917504.0,1960.6228156089783,1.9631865577629526e-14,0.0,1.9992587566375732,-0.019992589950561523,0.009072120301425457,-0.019992586225271225,-3.725290298461914e-09,0.0,-0.007575229741632938,0.1345038115978241,0.9805132295807328,1.0464799404144287,0.934393584728241,1.0389047861099243,0.9635287523269653,2.4880027770996094,0.9975614547729492,,,,,,,
,,,,,,,,,,,,,,,,,,,,,,,,,,0.014942807145416737,0.06388354301452637,0.06385312229394913,0.014942807145416737,0.06388354301452637,0.06385312229394913,
,,,,,,,,,,,,,,,,,,,,,,,,,,0.008234257809817791,0.04706724360585213,0.044612862169742584,0.008234257809817791,0.04706724360585213,0.044612862169742584,
,,,,,,,,,,,,,,,,,,,,,,,,,,0.004736375994980335,0.04113471508026123,0.0395931750535965,0.004736375994980335,0.04113471508026123,0.0395931750535965,
,,,,,,,,,,,,,,,,,,,,,,,,,,0.004131074994802475,0.04117297753691673,0.03911428153514862,0.004131074994802475,0.04117297753691673,0.03911428153514862,
,,,,,,,,,,,,,,,,,,,,,,,,,,0.003304786514490843,0.037905529141426086,0.034891288727521896,0.003304786514490843,0.037905529141426086,0.034891288727521896,
,,,,,,,,,,,,,,,,,,,,,,,,,,0.004470532294362783,0.03656782954931259,0.03377235680818558,0.004470532294362783,0.03656782954931259,0.03377235680818558,
,,,,,,,,,,,,,,,,,,,,,,,,,,,,,,,,-1.9
4634708000.0,102.58,1.5199999809265137,11990521856.0,16.77839712378581,224.0,0.010801523923873901,921600.0,2204.7462542057037,1.8306536841983245e-14,0.0,1.9796595573425293,-0.019796598702669144,0.006313534453511238,-0.019796594977378845,-3.725290298461914e-09,0.0,0.006251880899071693,0.11220988631248474,0.9794263093151166,0.8921960592269897,0.7625421285629272,0.8984478712081909,0.782302975654602,244.12343859672546,0.9975459575653076,,,,,,,
4634708000.0,110.49,1.7300000190734863,12041169408.0,1692.4585506060782,225.0,0.01098931860178709,925696.0,2207.1664021015167,1.7544993236029427e-14,0.0,1.935022234916687,-0.019350223243236542,0.010005159303545952,-0.019350221380591393,-1.862645149230957e-09,0.0,0.022426040843129158,0.13968591392040253,0.9664666808934392,0.9666574597358704,0.7377382516860962,0.9890834093093872,0.7628064155578613,2.4201478958129883,0.9975206851959229,,,,,,,
4634708000.0,104.3,1.440000057220459,12041169408.0,1701.339650190813,226.0,0.008384211920201778,929792.0,2209.5739166736603,1.858582732161551e-14,0.0,1.9491735696792603,-0.01949172466993332,0.014418176375329494,-0.019491735845804214,1.1175870895385742e-08,0.0,0.0015725987032055855,0.16982613503932953,0.9576368561996863,0.6646658778190613,0.7777141332626343,0.6662384271621704,0.8251073360443115,2.4075145721435547,0.9974851608276367,,,,,,,
4634708000.0,93.53,1.3799999952316284,12041169408.0,1695.6471068960657,227.0,0.013116475194692612,933888.0,2211.9895136356354,1.8089696407486144e-14,0.0,1.9832922220230103,-0.019832922145724297,0.005217043682932854,-0.019832922145724297,0.0,0.0,0.007465197239071131,0.10188665986061096,0.9852248941435457,0.8618943095207214,0.8165668845176697,0.8693594932556152,0.8382084965705872,2.4155969619750977,0.9975361824035645,,,,,,,
4634708000.0,91.38,1.5499999523162842,12041169408.0,1667.1456448157005,228.0,0.012256267480552197,937984.0,2214.446407556534,1.7597468621177725e-14,0.0,2.0003256797790527,-0.020003240555524826,0.008911997079849243,-0.02000325545668602,1.4901161193847656e-08,0.0,0.012166842818260193,0.13296720385551453,0.9758220342898185,0.9274271726608276,0.838911771774292,0.939594030380249,0.8551349639892578,2.4568939208984375,0.9975502490997314,,,,,,,
4634708000.0,91.11,1.4700000286102295,12041169408.0,1652.8903127671356,229.0,0.011570313945412636,942080.0,2216.92449092865,2.0095036745715333e-14,0.0,1.9263743162155151,-0.019263744354248047,0.00929822027683258,-0.019263742491602898,-1.3969838619232178e-09,0.0,-0.0006032580859027803,0.13638408482074738,0.9737777785671939,0.7787821292877197,0.8330731987953186,0.7781788110733032,0.842226505279541,2.478083372116089,0.9976418018341064,,,,,,,
4634708000.0,88.06,1.3899999856948853,12041169408.0,1663.581804498406,230.0,0.011584226973354816,946176.0,2219.3866481781006,1.879225941525675e-14,0.0,1.9784417152404785,-0.019784409552812576,0.003931226674467325,-0.019784417003393173,7.450580596923828e-09,0.0,-0.0032687950879335403,0.08862102031707764,0.9904869465830216,0.7732598185539246,0.895389974117279,0.7699910402297974,0.9086084961891174,2.4621572494506836,0.9976234436035156,,,,,,,
4634708000.0,86.25,1.409999966621399,12041169408.0,1650.4406541020871,231.0,0.011422622948884964,950272.0,2221.8684096336365,1.926063475377049e-14,0.0,1.95210862159729,-0.01952107809484005,0.007305908482521772,-0.019521085545420647,7.450580596923828e-09,0.0,-0.00040121888741850853,0.1208934411406517,0.9844159644833532,1.110781192779541,0.954088568687439,1.110379934310913,0.9684178829193115,2.4817614555358887,0.9974639415740967,,,,,,,
4634708000.0,100.54,1.590000033378601,12041169408.0,1684.8937517328402,232.0,0.011084516532719135,954368.0,2224.299423456192,1.9154816621735904e-14,0.0,1.9445245265960693,-0.019445255398750305,0.008700970560312271,-0.01944524422287941,-1.1175870895385742e-08,0.0,-0.01901312917470932,0.13055498898029327,0.9827501562667335,0.9513037204742432,0.9885849356651306,0.9322905540466309,0.9940330982208252,2.431013822555542,0.9975764751434326,,,,,,,
4634708000.0,98.37,1.5,12041169408.0,1681.5894198834487,233.0,0.011451389640569687,958464.0,2226.7352142333984,2.1675369832330205e-14,0.0,1.9337754249572754,-0.019337760284543037,0.011965741403400898,-0.01933775469660759,-5.587935447692871e-09,0.0,-0.027013245970010757,0.1523398607969284,0.975790869325897,0.9544329643249512,0.9925137758255005,0.9274196624755859,0.9790929555892944,2.435790777206421,0.9989335536956787,,,,,,,
4634708000.0,92.76,1.4800000190734863,12041169408.0,1685.7081361548392,234.0,0.011818209663033485,962560.0,2229.1650536060333,2.1494958590828617e-14,0.0,1.911729097366333,-0.01911729946732521,0.006924338173121214,-0.019117290154099464,-9.313225746154785e-09,0.0,-0.00810509268194437,0.11741528660058975,0.9875461207664694,1.0724871158599854,1.0496183633804321,1.0643820762634277,1.0521371364593506,2.4298393726348877,0.9976685047149658,,,,,,,
4634708000.0,90.6,1.440000057220459,12041169408.0,1645.7657787319076,235.0,0.010950610041618347,966656.0,2231.653864622116,2.097107210108362e-14,0.0,1.96318781375885,-0.019631866365671158,0.003525376785546541,-0.019631877541542053,1.1175870895385742e-08,0.0,-0.014101998880505562,0.08278623968362808,0.9888665175932915,0.5749962329864502,0.7904931306838989,0.560894250869751,0.7845897078514099,2.4888110160827637,0.9975223541259766,,,,,,,
4634708000.0,86.41,1.2899999618530273,12041169408.0,1674.9135028304108,236.0,0.010433982126414776,970752.0,2234.099364042282,2.004819921186396e-14,0.0,1.8515374660491943,-0.01851537637412548,0.007070579566061497,-0.01851537451148033,-1.862645149230957e-09,0.0,-0.004237739369273186,0.11885558068752289,0.9871326841963348,0.9640929698944092,1.0530455112457275,0.9598551988601685,1.0477932691574097,2.4454994201660156,0.9974477291107178,,,,,,,
4634708000.0,83.77,1.25,12041169408.0,1659.847602414971,237.0,0.011154050007462502,974848.0,2236.567060470581,1.9654416982817224e-14,0.0,1.890529751777649,-0.018905295059084892,0.006310621276497841,-0.01890529692173004,1.862645149230957e-09,0.0,-0.00011496164370328188,0.1123579666018486,0.9876267361068679,0.8448561429977417,1.0077524185180664,0.8447411060333252,1.0100938081741333,2.46769642829895,0.997748851776123,,,,,,,
4634708000.0,95.38,1.4800000190734863,12041169408.0,1688.124834146368,238.0,0.011698813177645206,978944.0,2238.993421316147,1.9829624053890882e-14,0.0,1.8542757034301758,-0.018542757257819176,0.006868300493806601,-0.018542757257819176,0.0,0.0,-0.0046432833187282085,0.11712553352117538,0.9833604284333456,0.7618801593780518,0.920004665851593,0.7572368383407593,0.9079887866973877,2.426360845565796,0.9974768161773682,,,,,,,
4634708000.0,90.26,1.350000023841858,12041169408.0,1693.7194751322527,239.0,0.00940647628158331,983040.0,2241.4117674827576,2.1130666660873487e-14,0.0,1.8809800148010254,-0.018809806555509567,0.016763746738433838,-0.01880979910492897,-8.381903171539307e-09,0.0,-0.017386460676789284,0.18230009078979492,0.9686325288605333,0.8262699842453003,1.0216954946517944,0.808883547782898,1.0293121337890625,2.4183461666107178,0.9978125095367432,,,,,,,
4634708000.0,88.1,1.2100000381469727,12041169408.0,1685.146282110349,240.0,0.010661453008651733,987136.0,2243.8424170017242,2.116189168344107e-14,0.0,1.8803248405456543,-0.01880325749516487,0.00738637987524271,-0.018803248181939125,-9.313225746154785e-09,0.0,0.018359841778874397,0.12016322463750839,0.9756621580775482,0.512600302696228,0.7636958956718445,0.5309600830078125,0.7702479362487793,2.430649518966675,0.9974508285522461,,,,,,,
4634708000.0,84.48,1.159999966621399,12041169408.0,1657.9530998361722,241.0,0.009785675443708897,991232.0,2246.3129332065582,2.3540197569005272e-14,0.0,1.8227505683898926,-0.018227504566311836,0.012377168983221054,-0.018227504566311836,0.0,0.0,0.00699213333427906,0.15719886124134064,0.9766713829147847,0.957453727722168,1.04621422290802,0.9644458889961243,1.0292119979858398,2.4705162048339844,0.997671365737915,,,,,,,
4634708000.0,96.63,1.350000023841858,12041169408.0,1716.7211798740789,242.0,0.01051013357937336,995328.0,2248.6988768577576,2.4523785779884122e-14,0.0,1.8023419380187988,-0.018023395910859108,0.010049807839095592,-0.0180234182626009,2.2351741790771484e-08,0.0,0.011496411636471748,0.14132347702980042,0.9781250784969092,0.8646753430366516,0.9650794267654419,0.8761717081069946,0.9555228352546692,2.385943651199341,0.9978389739990234,,,,,,,
4634708000.0,100.56,1.4600000381469727,12041169408.0,1686.1550096655303,243.0,0.011058969423174858,999424.0,2251.1280722618103,2.0775048348298242e-14,0.0,1.870002031326294,-0.018700024113059044,0.008299039676785469,-0.018700020387768745,-3.725290298461914e-09,0.0,0.006529341451823711,0.1286836713552475,0.9808863405478131,0.9156813025474548,0.9314954876899719,0.922210693359375,0.9307897686958313,2.4291954040527344,0.9976644515991211,,,,,,,
4634708000.0,101.49,1.6299999952316284,12041169408.0,1623.842536359274,244.0,0.013570155948400497,1003520.0,2253.6504843235016,2.0419430035722996e-14,0.0,1.9037199020385742,-0.01903720572590828,0.0036652395501732826,-0.019037198275327682,-8.381903171539307e-09,0.0,0.0037690140306949615,0.08554565906524658,0.9856064622431118,0.5138046145439148,0.7145810723304749,0.5175736546516418,0.7130405306816101,2.522412061691284,0.9977774620056152,,,,,,,
4634708000.0,86.84,1.5199999809265137,12041169408.0,1654.9798495517455,245.0,0.012870905920863152,1007616.0,2256.125438928604,2.4439218010430253e-14,0.0,1.8380433320999146,-0.01838042587041855,0.00822186004370451,-0.018380433320999146,7.450580596923828e-09,0.0,0.017960304394364357,0.1269845813512802,0.9840873279726038,0.9232591390609741,0.9945696592330933,0.9412194490432739,1.0066521167755127,2.474954605102539,0.998847246170044,,,,,,,
4634708000.0,89.95,1.5700000524520874,12041169408.0,1663.847967688175,246.0,0.009664628654718399,1011712.0,2258.587202310562,2.1947721418058563e-14,0.0,1.7863929271697998,-0.017863932996988297,0.010233207605779171,-0.017863929271697998,-4.6566128730773926e-09,0.0,0.005276128184050322,0.14298100769519806,0.981871168028117,1.1403762102127075,1.051419973373413,1.1456522941589355,1.0619239807128906,2.461763381958008,0.9978134632110596,,,,,,,
4634708000.0,104.05,1.6699999570846558,12041169408.0,1652.923231810875,247.0,0.012361699715256691,1015808.0,2261.0652363300323,2.091729567332834e-14,0.0,1.8246238231658936,-0.0182462390512228,0.009931504726409912,-0.018246237188577652,-1.862645149230957e-09,0.0,0.005644588731229305,0.1408403068780899,0.9737179789263386,0.9345901608467102,0.8721370100975037,0.9402347207069397,0.8687555193901062,2.478034019470215,0.9977107048034668,,,,,,,
4634708000.0,110.66,1.659999966621399,12041169408.0,1667.8595659318742,248.0,0.010762786492705345,1019904.0,2263.5210785865784,2.2567017698982283e-14,0.0,1.8439490795135498,-0.01843947358429432,0.0068143499083817005,-0.018439490348100662,1.6763806343078613e-08,0.0,0.015664154663681984,0.11570048332214355,0.9855979235044372,0.8842988014221191,0.9536504745483398,0.8999629020690918,0.9641011953353882,2.4558422565460205,0.997368574142456,,,,,,,
4634708000.0,102.03,1.5800000429153442,12041169408.0,1675.3994374788929,249.0,0.01131432130932808,1024000.0,2265.9658687114716,2.1486284973448733e-14,0.0,1.8644397258758545,-0.01864439621567726,0.01867564022541046,-0.01864439621567726,0.0,0.0,-0.009530246257781982,0.1930532306432724,0.956574533988092,0.9880905747413635,0.916576623916626,0.9785602688789368,0.926413357257843,2.4447901248931885,0.9977405071258545,,,,,,,
4634708000.0,96.48,1.4600000381469727,12041169408.0,1656.4552382469365,250.0,0.010429860092699528,1028096.0,2268.4386188983917,2.025983547593313e-14,0.0,1.8623547554016113,-0.018623555079102516,0.007167445495724678,-0.01862354762852192,-7.450580596923828e-09,0.0,0.012157308869063854,0.11912412196397781,0.9826021314599477,0.870673418045044,0.8975354433059692,0.8828307390213013,0.9031329154968262,2.472750186920166,0.9977061748504639,,,,,,,
4634708000.0,98.55,1.4199999570846558,12041169408.0,1679.0660005995035,251.0,0.011341527104377747,1032192.0,2270.8780703544617,2.0681373280595494e-14,0.0,1.890371561050415,-0.01890372298657894,0.015447698533535004,-0.018903715535998344,-7.450580596923828e-09,0.0,-0.003706861287355423,0.17575323581695557,0.9625077696585781,0.8554478883743286,0.8868929147720337,0.8517409563064575,0.9076798558235168,2.4394514560699463,0.9975082874298096,,,,,,,
4634708000.0,91.82,1.4199999570846558,12041169408.0,1691.3000638229441,252.0,0.012256242334842682,1036288.0,2273.299875974655,2.0820584839542633e-14,0.0,1.9386872053146362,-0.019386887550354004,0.00465442193672061,-0.01938687078654766,-1.7695128917694092e-08,0.0,0.0191810205578804,0.09456804394721985,0.9860504709937439,0.6060512661933899,0.7730841040611267,0.6252323389053345,0.8006905317306519,2.4218056201934814,0.9977724552154541,,,,,,,
4634708000.0,85.82,1.3899999856948853,12041169408.0,1607.5979873992553,253.0,0.009564707055687904,1040384.0,2275.8477766513824,2.026503964636106e-14,0.0,1.8221256732940674,-0.018221255391836166,0.007972503080964088,-0.018221257254481316,1.862645149230957e-09,0.0,0.00825151614844799,0.12601901590824127,0.9820348064265243,0.9684000015258789,0.945763111114502,0.9766515493392944,0.9401997923851013,2.547900676727295,0.9976174831390381,,,,,,,
4634708000.0,95.65,1.4700000286102295,12041169408.0,1702.238657460504,254.0,0.012826849706470966,1044480.0,2278.2540197372437,1.8769708010069053e-14,0.0,1.9042277336120605,-0.019042277708649635,0.005872117821127176,-0.019042277708649635,0.0,0.0,0.012560945935547352,0.10765355080366135,0.9854073255851838,0.8471417427062988,0.8882125616073608,0.8597027063369751,0.8911707401275635,2.406243085861206,0.9975509643554688,,,,,,,
4634708000.0,105.45,1.7000000476837158,12041169408.0,1715.9128944844367,255.0,0.013924796134233475,1048576.0,2280.641087293625,1.9696050346240668e-14,0.0,1.9485597610473633,-0.01948559656739235,0.003708409145474434,-0.01948559656739235,9.313225746154785e-10,0.0,0.00724576972424984,0.0858260840177536,0.9883306421600024,0.638446569442749,0.78641676902771,0.6456923484802246,0.7945034503936768,2.3870675563812256,0.9978013038635254,,,,,,,
,,,,,,,,,,,,,,,,,,,,,,,,,,0.0022739660926163197,0.017899109050631523,0.01543173473328352,0.0022739660926163197,0.017899109050631523,0.01543173473328352,
,,,,,,,,,,,,,,,,,,,,,,,,,,0.002375609241425991,0.01468924805521965,0.013126861304044724,0.002375609241425991,0.01468924805521965,0.013126861304044724,
,,,,,,,,,,,,,,,,,,,,,,,,,,0.0016968189738690853,0.01279993262141943,0.011037667281925678,0.0016968189738690853,0.01279993262141943,0.011037667281925678,
