CpuMaxMemory,EpLenMean,EpRewMean,GpuMaxMemory,IPS_total,Iter,Misc/FrameRewMean,Misc/InteractCount,Misc/TimeElapsed,Opt/approxkl,Opt/clipfrac,Opt/entropy,Opt/loss_pi,Opt/loss_vf,Opt/negent,Opt/pg,Opt/pi_kl,VFStats/AdvMean,VFStats/AdvStd,VFStats/EV,VFStats/VpredMean,VFStats/VpredStd,VFStats/VtargMean,VFStats/VtargStd,del_time,wait_optimization,scaled/pol_distance,scaled/vf_aux,scaled/vf_true,unscaled/pol_distance,unscaled/vf_aux,unscaled/vf_true,EvalEpMean
3030732000.0,71.83333333333333,-2.1041667461395264,11965495808.0,1652.9108273795698,0.0,-0.012756410986185074,4096.0,2.4780526161193848,2.8657631823136853e-15,0.0,2.707751989364624,-0.02707752399146557,0.1956586241722107,-0.02707751840353012,-5.587935447692871e-09,0.0,-0.19961047172546387,0.5929238200187683,-0.005669809183491026,0.07252208888530731,0.024089133366942406,-0.12708838284015656,0.5912501215934753,2.4780526161193848,1.032182216644287,,,,,,,
3080180000.0,75.11,-2.259999990463257,12031147008.0,1718.7901090179441,1.0,-0.014288290403783321,8192.0,4.861124277114868,3.184952301893418e-15,0.0,2.705765962600708,-0.027057645842432976,0.1834222674369812,-0.02705765888094902,1.30385160446167e-08,0.0,-0.14459970593452454,0.5882346034049988,0.05279917873927287,-0.2890409827232361,0.0721987634897232,-0.433640718460083,0.604407012462616,2.3830716609954834,0.9975376129150391,,,,,,,
3129548000.0,77.76,-2.430000066757202,12031147008.0,1751.7183574344288,2.0,-0.015331646427512169,12288.0,7.199399709701538,3.899658373995862e-15,0.0,2.7016987800598145,-0.027016984298825264,0.21808135509490967,-0.027016988024115562,3.725290298461914e-09,0.0,-0.06939315795898438,0.6568505167961121,0.01908497392560038,-0.7346093058586121,0.1926194429397583,-0.8040024042129517,0.6632096767425537,2.33827543258667,0.9985322952270508,,,,,,,
3179180000.0,83.16,-2.7899999618530273,12031147008.0,1774.8235115698092,3.0,-0.015928076580166817,16384.0,9.507234811782837,4.7531423241764514e-15,0.0,2.694840431213379,-0.026948411017656326,0.28302478790283203,-0.02694840356707573,-7.450580596923828e-09,0.0,0.05701125040650368,0.750291109085083,0.11604050043407099,-1.4057042598724365,0.363290011882782,-1.3486928939819336,0.7980195879936218,2.307835102081299,0.997039794921875,,,,,,,
3228812000.0,84.69,-2.549999952316284,12031147008.0,1790.8160026785308,4.0,-0.011205407790839672,20480.0,11.79446029663086,4.746203430272544e-15,0.0,2.6917810440063477,-0.02691780962049961,0.24830779433250427,-0.02691780962049961,0.0,0.0,0.18012870848178864,0.6813828349113464,0.09198600592970585,-1.4166189432144165,0.34951674938201904,-1.236490249633789,0.7150639891624451,2.2872254848480225,0.9972696304321289,,,,,,,
3278444000.0,77.82,-1.899999976158142,12031147008.0,1777.294341943483,5.0,-0.01198955811560154,24576.0,14.099086999893188,5.266620473065586e-15,0.0,2.6826345920562744,-0.02682635560631752,0.19962897896766663,-0.026826344430446625,-1.210719347000122e-08,0.0,0.11822541058063507,0.620785653591156,0.06278857462318588,-1.0276988744735718,0.2465648055076599,-0.9094734787940979,0.6412432789802551,2.304626703262329,0.9971845149993896,,,,,,,
3328076000.0,75.15,-1.8300000429153442,12031147008.0,1728.1946730558718,6.0,-0.01115243136882782,28672.0,16.4691903591156,5.5164206536062466e-15,0.0,2.675872325897217,-0.026758719235658646,0.16460469365119934,-0.026758722960948944,3.725290298461914e-09,0.0,-0.007738892920315266,0.5737855434417725,-0.0389362155781694,-0.6599105596542358,0.14760468900203705,-0.6676493883132935,0.5629310011863708,2.370103359222412,0.997124433517456,,,,,,,
3377444000.0,75.03,-1.8799999952316284,12031147008.0,1730.2284577615085,7.0,-0.01256412360817194,32768.0,18.83650779724121,5.474787290182803e-15,0.0,2.6747398376464844,-0.026747405529022217,0.1710505485534668,-0.02674739807844162,-7.450580596923828e-09,0.0,-0.05042525380849838,0.5827875137329102,0.034259444074225764,-0.43449196219444275,0.09014898538589478,-0.48491719365119934,0.593034565448761,2.3673174381256104,0.9975230693817139,,,,,,,
3427076000.0,72.14,-1.409999966621399,12031147008.0,1771.5469841451525,8.0,-0.005493908654898405,36864.0,21.148611307144165,5.656933255160368e-15,0.0,2.662961483001709,-0.02662961557507515,0.1033594086766243,-0.02662961371243,-1.862645149230957e-09,0.0,0.012840032577514648,0.454537570476532,-0.0006838708233940505,-0.3208755552768707,0.07445179671049118,-0.30803555250167847,0.4543822407722473,2.312103509902954,0.9971573352813721,,,,,,,
3476708000.0,76.79,-1.1200000047683716,12031147008.0,1749.6911470147934,9.0,-0.009927635081112385,40960.0,23.489595890045166,5.566727634409574e-15,0.0,2.6528072357177734,-0.02652808278799057,0.1505231261253357,-0.026528071612119675,-1.1175870895385742e-08,0.0,-0.08462214469909668,0.5421780943870544,0.018821856893746935,-0.2414838671684265,0.05170698091387749,-0.3261060118675232,0.5473536849021912,2.340984582901001,0.9969618320465088,,,,,,,
3526340000.0,78.34,-1.9600000381469727,12031147008.0,1777.5341341402861,10.0,-0.01473437063395977,45056.0,25.793911695480347,5.540706782269922e-15,0.0,2.648620128631592,-0.02648618258535862,0.17569874227046967,-0.026486201211810112,1.862645149230957e-08,0.0,-0.1554749310016632,0.5721057057380676,0.01476674241192566,-0.19250693917274475,0.040343448519706726,-0.34798189997673035,0.5763771533966064,2.3043158054351807,0.9973554611206055,,,,,,,
3575972000.0,75.13,-2.0799999237060547,12031147008.0,1759.5085038779125,11.0,-0.009043830446898937,49152.0,28.12183451652527,5.452235884995105e-15,0.0,2.634779214859009,-0.026347782462835312,0.12087541818618774,-0.026347791776061058,9.778887033462524e-09,0.0,-0.06259259581565857,0.48774081468582153,0.010935221333475686,-0.187239408493042,0.040964607149362564,-0.24983200430870056,0.49042966961860657,2.327922821044922,0.997241735458374,,,,,,,
3625340000.0,76.5,-1.5299999713897705,12031147008.0,1788.0461423495397,12.0,-0.010520420037209988,53248.0,30.41260313987732,5.9119376061289586e-15,0.0,2.6026530265808105,-0.026026520878076553,0.16252166032791138,-0.0260265301913023,9.313225746154785e-09,0.0,-0.12552693486213684,0.5562030673027039,0.016853459636749446,-0.19047538936138153,0.03783600032329559,-0.3160023093223572,0.5609501004219055,2.290768623352051,0.9973766803741455,,,,,,,
3674972000.0,75.37,-1.600000023841858,12031147008.0,1749.4372516477727,13.0,-0.009876755997538567,57344.0,32.75392746925354,5.955305693028379e-15,0.0,2.578657627105713,-0.025786573067307472,0.1512642204761505,-0.02578657492995262,1.862645149230957e-09,0.0,-0.08440008014440536,0.5435781478881836,0.021582877355117658,-0.20805755257606506,0.04737642779946327,-0.292457640171051,0.5495408177375793,2.3413243293762207,0.9973323345184326,,,,,,,
3724340000.0,73.65,-1.649999976158142,12031147008.0,1706.1743906239542,14.0,-0.013325242325663567,61440.0,35.15461993217468,5.559788740505667e-15,0.0,2.550870418548584,-0.025508718565106392,0.18958447873592377,-0.025508703663945198,-1.4901161193847656e-08,0.0,-0.11692065000534058,0.6046385169029236,0.017001675328851662,-0.24701827764511108,0.04870956391096115,-0.36393892765045166,0.609844982624054,2.4006924629211426,0.9974827766418457,,,,,,,
3773972000.0,74.32,-2.0899999141693115,12031147008.0,1743.812077746596,15.0,-0.014193909242749214,65536.0,37.50349688529968,5.533767888366015e-15,0.0,2.537353277206421,-0.02537352591753006,0.18014845252037048,-0.025373531505465508,5.587935447692871e-09,0.0,-0.1378355175256729,0.5842787027359009,0.01837749618020179,-0.3080839514732361,0.05941464751958847,-0.4459194839000702,0.5897226333618164,2.348876953125,0.997525691986084,,,,,,,
3823340000.0,74.47,-2.2699999809265137,12031147008.0,1700.057937386528,16.0,-0.013417376205325127,69632.0,39.91282653808594,5.7245874707234634e-15,0.0,2.52059268951416,-0.02520592138171196,0.1720239371061325,-0.025205926969647408,5.587935447692871e-09,0.0,-0.08645167201757431,0.5802208185195923,0.017656061703755332,-0.3778667449951172,0.07967900484800339,-0.4643183946609497,0.5854118466377258,2.409329652786255,0.9974350929260254,,,,,,,
3872972000.0,72.4,-1.850000023841858,12031147008.0,1683.9608063469534,17.0,-0.009607911109924316,73728.0,42.345187187194824,6.144390551909851e-15,0.0,2.5400803089141846,-0.025400802493095398,0.15893816947937012,-0.025400802493095398,0.0,0.0,-0.01791607216000557,0.563589334487915,0.005298205438996506,-0.4857676923274994,0.11052003502845764,-0.5036838054656982,0.5650883316993713,2.4323606491088867,0.9972195625305176,,,,,,,
3922340000.0,71.55,-1.2599999904632568,12031147008.0,1716.1972678890454,18.0,-0.007959248498082161,77824.0,44.73185920715332,6.446232436729815e-15,0.0,2.588912010192871,-0.025889115408062935,0.12822744250297546,-0.025889119133353233,3.725290298461914e-09,0.0,0.08648078888654709,0.4990357756614685,0.07967042155679238,-0.5816415548324585,0.12999960780143738,-0.4951607882976532,0.5201876759529114,2.386672019958496,0.9973440170288086,,,,,,,
3971972000.0,71.85,-1.090000033378601,12031147008.0,1740.6090925937126,19.0,-0.008870581164956093,81920.0,47.08505845069885,5.56325818745762e-15,0.0,2.6138534545898438,-0.026138534769415855,0.18250975012779236,-0.026138534769415855,0.0,0.0,0.012729356065392494,0.6041080355644226,0.012571255746834153,-0.6408270001411438,0.1396913081407547,-0.628097653388977,0.6079415082931519,2.3531992435455322,0.9973504543304443,,,,,,,
4021604000.0,75.86,-1.2100000381469727,12031147008.0,1801.2215461707028,20.0,-0.008047116920351982,86016.0,49.359070777893066,5.901529265273098e-15,0.0,2.6292190551757812,-0.026292184367775917,0.16725793480873108,-0.026292189955711365,5.587935447692871e-09,0.0,0.06823384016752243,0.5744045376777649,0.0390250276758457,-0.6792480945587158,0.14463746547698975,-0.6110142469406128,0.5859516859054565,2.274012327194214,0.9971878528594971,,,,,,,
4071236000.0,77.05,-1.159999966621399,12031147008.0,1785.0982215693668,21.0,-0.007466244511306286,90112.0,51.65362238883972,5.780098621954721e-15,0.0,2.635014533996582,-0.02635014057159424,0.16242198646068573,-0.026350144296884537,3.725290298461914e-09,0.0,0.05404755845665932,0.5674517750740051,0.10331703550165494,-0.6692315340042114,0.14472158253192902,-0.61518394947052,0.5992519855499268,2.2945516109466553,0.9975583553314209,,,,,,,
4120604000.0,77.7,-1.690000057220459,12031147008.0,1805.815272310187,22.0,-0.012861674651503563,94208.0,53.921849966049194,6.692563170318522e-15,0.0,2.6139330863952637,-0.02613931894302368,0.21050894260406494,-0.026139330118894577,1.1175870895385742e-08,0.0,-0.040975019335746765,0.6476428508758545,0.0703151089963081,-0.6690437197685242,0.1176430955529213,-0.7100187540054321,0.6716882586479187,2.2682275772094727,0.9970557689666748,,,,,,,
4170236000.0,76.89,-1.2899999618530273,12031147008.0,1744.9931300783444,23.0,-0.004434465430676937,98304.0,56.269137144088745,6.553785292240377e-15,0.0,2.6169586181640625,-0.026169588789343834,0.1166587620973587,-0.026169585064053535,-3.725290298461914e-09,0.0,0.09014865756034851,0.474600613117218,0.09009707484858509,-0.5978754758834839,0.12591595947742462,-0.5077268481254578,0.49754318594932556,2.347287178039551,0.9972577095031738,,,,,,,
4219604000.0,76.3,-0.8199999928474426,12031147008.0,1736.0443840608084,24.0,-0.007067475467920303,102400.0,58.62852382659912,7.473188734508085e-15,0.0,2.5931859016418457,-0.025931857526302338,0.12069014459848404,-0.025931857526302338,0.0,0.0,0.061170488595962524,0.4875412583351135,0.11501826350459265,-0.5808566808700562,0.11995218694210052,-0.519686222076416,0.5182558298110962,2.359386682510376,0.9971060752868652,,,,,,,
4269488000.0,74.57,-1.3700000047683716,12031147008.0,1704.4809522307144,25.0,-0.012037520296871662,106496.0,61.031601428985596,6.477457459297398e-15,0.0,2.556908130645752,-0.025569075718522072,0.18481235206127167,-0.02556908130645752,5.587935447692871e-09,0.0,-0.04972466081380844,0.6060048341751099,0.047391476337592664,-0.553914487361908,0.10587812960147858,-0.6036391854286194,0.6208959817886353,2.4030776023864746,0.9972074031829834,,,,,,,
4318740000.0,72.72,-1.3300000429153442,12031147008.0,1705.1904869100324,26.0,-0.008738351985812187,110592.0,63.43367910385132,6.288372600415926e-15,0.0,2.5205721855163574,-0.025205722078680992,0.13244551420211792,-0.025205722078680992,-4.656612873077393e-10,0.0,0.01192015316337347,0.5146004557609558,0.056292566253607124,-0.5226748585700989,0.08931731432676315,-0.5107547044754028,0.5297261476516724,2.4020776748657227,0.997157096862793,,,,,,,
4368460000.0,73.52,-1.3300000429153442,12031147008.0,1753.964411811519,27.0,-0.007779412437230349,114688.0,65.76896023750305,6.92154666914746e-15,0.0,2.4945878982543945,-0.024945883080363274,0.14048779010772705,-0.024945879355072975,-3.725290298461914e-09,0.0,0.0019756825640797615,0.5301323533058167,0.056466957324337486,-0.4400215744972229,0.09979786723852158,-0.4380458891391754,0.5457651019096375,2.3352811336517334,0.9974367618560791,,,,,,,
4418120000.0,74.82,-1.2000000476837158,12031147008.0,1791.285609006294,28.0,-0.007563492748886347,118784.0,68.05558609962463,7.594619377826461e-15,0.0,2.4329099655151367,-0.02432909980416298,0.11638262867927551,-0.02432909980416298,0.0,0.0,0.014818448573350906,0.48228877782821655,0.06577794006811455,-0.4251442551612854,0.10183469951152802,-0.410325825214386,0.49897879362106323,2.286625862121582,0.99715256690979,,,,,,,
4467488000.0,72.63,-1.4199999570846558,12031147008.0,1778.1828534462904,29.0,-0.013006061315536499,122880.0,70.3590612411499,7.917277944358148e-15,0.0,2.3226234912872314,-0.023226240649819374,0.15360862016677856,-0.023226235061883926,-5.587935447692871e-09,0.0,-0.04974886029958725,0.5521020889282227,0.061438013015808535,-0.42427223920822144,0.10633091628551483,-0.4740210771560669,0.5698858499526978,2.3034751415252686,0.9974629878997803,,,,,,,
4517120000.0,73.72,-1.7699999809265137,12031147008.0,1774.273986342737,30.0,-0.011147651821374893,126976.0,72.66761112213135,7.428085924132688e-15,0.0,2.3076186180114746,-0.023076185956597328,0.13167984783649445,-0.023076185956597328,0.0,0.0,-0.026262976229190826,0.5125759840011597,0.0912927481879896,-0.4279577434062958,0.10925496369600296,-0.454220712184906,0.5377076864242554,2.3085498809814453,0.997657060623169,,,,,,,
4566488000.0,73.91,-1.6799999475479126,12031147008.0,1758.8018500115531,31.0,-0.01217728666961193,131072.0,74.99646925926208,7.853093175747006e-15,0.0,2.3188178539276123,-0.02318817749619484,0.17084388434886932,-0.02318817749619484,0.0,0.0,-0.06632962822914124,0.5808359980583191,0.06600491730848324,-0.4177034795284271,0.10322467982769012,-0.48403310775756836,0.6010093688964844,2.3288581371307373,0.9971189498901367,,,,,,,
,,,,,,,,,,,,,,,,,,,,,,,,,,0.0057344925589859486,0.19890916347503662,0.2029462605714798,0.0057344925589859486,0.19890916347503662,0.2029462605714798,
,,,,,,,,,,,,,,,,,,,,,,,,,,0.002241201000288129,0.18432217836380005,0.18148410320281982,0.002241201000288129,0.18432217836380005,0.18148410320281982,
,,,,,,,,,,,,,,,,,,,,,,,,,,0.0016392653342336416,0.17332740128040314,0.16853277385234833,0.0016392653342336416,0.17332740128040314,0.16853277385234833,
,,,,,,,,,,,,,,,,,,,,,,,,,,0.0015357048250734806,0.16234520077705383,0.15746904909610748,0.0015357048250734806,0.16234520077705383,0.15746904909610748,
,,,,,,,,,,,,,,,,,,,,,,,,,,0.0017618687124922872,0.15025191009044647,0.15020528435707092,0.0017618687124922872,0.15025191009044647,0.15020528435707092,
,,,,,,,,,,,,,,,,,,,,,,,,,,0.0040264129638671875,0.14996816217899323,0.14978604018688202,0.0040264129638671875,0.14996816217899323,0.14978604018688202,
,,,,,,,,,,,,,,,,,,,,,,,,,,,,,,,,-1.11
4586436000.0,73.71,-1.3700000047683716,11990518784.0,16.990778235332524,32.0,-0.00853186845779419,135168.0,316.06841683387756,5.6430554673525535e-15,0.0,2.3458681106567383,-0.023458678275346756,0.08793098479509354,-0.023458680137991905,1.862645149230957e-09,0.0,0.06743262708187103,0.41395246982574463,0.5202237787620245,-0.5269114971160889,0.3140644133090973,-0.4594789147377014,0.5976282358169556,241.07194757461548,0.9973220825195312,,,,,,,
4586436000.0,72.55,-1.2799999713897705,12041169408.0,1773.6526521574306,33.0,-0.00979580357670784,139264.0,318.3777754306793,5.197231534026514e-15,0.0,2.360902786254883,-0.023609021678566933,0.13026031851768494,-0.02360902726650238,5.587935447692871e-09,0.0,0.056801289319992065,0.5073037147521973,0.45096959228742306,-0.57876056432724,0.3769998550415039,-0.5219593048095703,0.6846519708633423,2.309358596801758,0.997478723526001,,,,,,,
4586436000.0,73.26,-1.5199999809265137,12041169408.0,1705.1341288767655,34.0,-0.009701719507575035,143360.0,320.7799324989319,5.412337245047638e-15,0.0,2.329746961593628,-0.023297473788261414,0.09482312202453613,-0.023297468200325966,-4.6566128730773926e-09,0.0,0.04862769693136215,0.43281325697898865,0.6115342520598614,-0.6550956964492798,0.4528977870941162,-0.6064680218696594,0.6944231390953064,2.4021570682525635,0.9974989891052246,,,,,,,
4586436000.0,71.97,-1.2799999713897705,12041169408.0,1709.6338185260636,35.0,-0.008450825698673725,147456.0,323.17576718330383,4.786102070220011e-15,0.0,2.359963893890381,-0.023599645122885704,0.1063356101512909,-0.023599637672305107,-6.984919309616089e-09,0.0,0.03415997698903084,0.45995214581489563,0.5367183609930486,-0.5681415796279907,0.42513591051101685,-0.5339816212654114,0.6757562756538391,2.3958346843719482,0.9973244667053223,,,,,,,
4586436000.0,71.52,-1.559999942779541,12041169408.0,1755.4411871123477,36.0,-0.01345671247690916,151552.0,325.50908374786377,5.603156827405087e-15,0.0,2.3488125801086426,-0.023488124832510948,0.1300828754901886,-0.023488124832510948,0.0,0.0,0.005052952095866203,0.5101017355918884,0.5716023315236707,-0.6204112768173218,0.4644312858581543,-0.6153583526611328,0.7793511748313904,2.3333165645599365,0.9973757266998291,,,,,,,
4586436000.0,72.98,-1.6399999856948853,12041169408.0,1767.6841200565045,37.0,-0.011043627746403217,155648.0,327.82623982429504,5.5892790395972725e-15,0.0,2.340330123901367,-0.02340329997241497,0.11351116001605988,-0.02340329997241497,0.0,0.0,0.022747738286852837,0.4759833812713623,0.655650398047061,-0.6006117463111877,0.5658143162727356,-0.5778640508651733,0.8111328482627869,2.3171560764312744,0.9973645210266113,,,,,,,
4586436000.0,74.5,-1.4800000190734863,12041169408.0,1784.2811716190367,38.0,-0.009538672864437103,159744.0,330.1218421459198,5.122638424559511e-15,0.0,2.32590389251709,-0.023259039968252182,0.08480876684188843,-0.023259038105607033,-1.862645149230957e-09,0.0,0.0632987916469574,0.4070027470588684,0.6932860713142246,-0.6025301218032837,0.5942930579185486,-0.5392313599586487,0.7349039912223816,2.295602321624756,0.9974215030670166,,,,,,,
4586436000.0,72.29,-1.149999976158142,12041169408.0,1742.627496944039,39.0,-0.009313086047768593,163840.0,332.47231578826904,5.037636974236648e-15,0.0,2.3103792667388916,-0.023103788495063782,0.08639548718929291,-0.02310379222035408,3.725290298461914e-09,0.0,0.1076260656118393,0.4015556871891022,0.7368995210889775,-0.6823023557662964,0.6665934324264526,-0.5746762752532959,0.782861590385437,2.350473642349243,0.9973807334899902,,,,,,,
4586436000.0,70.9,-1.2200000286102295,12041169408.0,1722.5250829836286,40.0,-0.009318605065345764,167936.0,334.85022020339966,5.613565168260948e-15,0.0,2.3277692794799805,-0.02327769249677658,0.10929501056671143,-0.02327769249677658,0.0,0.0,0.011448745615780354,0.4674530327320099,0.6797172809520433,-0.48923495411872864,0.6042566299438477,-0.47778618335723877,0.8259831070899963,2.3779044151306152,0.9975559711456299,,,,,,,
4586436000.0,72.03,-1.2999999523162842,12041169408.0,1778.8335198982888,41.0,-0.010003081522881985,172032.0,337.1528527736664,5.368969158148218e-15,0.0,2.311440944671631,-0.023114405572414398,0.09476733207702637,-0.023114409297704697,3.725290298461914e-09,0.0,0.028138142079114914,0.43449854850769043,0.6705727151000468,-0.5539410710334778,0.5940580368041992,-0.5258028507232666,0.7570220828056335,2.3026325702667236,0.9977409839630127,,,,,,,
4586436000.0,71.68,-1.059999942779541,12041169408.0,1758.2613000875454,42.0,-0.005738254636526108,176128.0,339.48242688179016,5.2926413252052384e-15,0.0,2.330460786819458,-0.02330460213124752,0.08946418017148972,-0.023304607719182968,5.587935447692871e-09,0.0,0.0438111275434494,0.4207756817340851,0.6336395602413847,-0.427391916513443,0.5603113770484924,-0.3835808038711548,0.6951785087585449,2.3295741081237793,0.9971914291381836,,,,,,,
4586436000.0,72.95,-0.9900000095367432,12041169408.0,1778.2862948874501,43.0,-0.010439103469252586,180224.0,341.785768032074,5.316927453868914e-15,0.0,2.318568229675293,-0.023185670375823975,0.08811505138874054,-0.02318568155169487,1.1175870895385742e-08,0.0,0.034984491765499115,0.4183884859085083,0.6680345067483612,-0.39561545848846436,0.5578816533088684,-0.36063098907470703,0.726161539554596,2.3033411502838135,0.9977610111236572,,,,,,,
4586436000.0,69.15,-1.3200000524520874,12041169408.0,1793.4976533501758,44.0,-0.012164697051048279,184320.0,344.06957364082336,5.852957007945747e-15,0.0,2.325328826904297,-0.02325328066945076,0.11401548981666565,-0.023253288120031357,7.450580596923828e-09,0.0,-0.017887892201542854,0.47724899649620056,0.7165697239570339,-0.4692418575286865,0.760970413684845,-0.48712974786758423,0.8964414000511169,2.2838056087493896,0.9973456859588623,,,,,,,
4586436000.0,71.94,-1.4299999475479126,12041169408.0,1815.6691948132764,45.0,-0.007975862361490726,188416.0,346.32549118995667,5.551115123125783e-15,0.0,2.3409018516540527,-0.02340901456773281,0.10421659052371979,-0.02340901829302311,3.725290298461914e-09,0.0,0.0287887342274189,0.4556918740272522,0.6830838769163836,-0.38358238339424133,0.6620995998382568,-0.3547936677932739,0.8094669580459595,2.255917549133301,0.9972517490386963,,,,,,,
4586436000.0,71.97,-0.8899999856948853,12041169408.0,1762.2565655840365,46.0,-0.008262662217020988,192512.0,348.6497838497162,5.214578768786282e-15,0.0,2.375420093536377,-0.023754192516207695,0.07564377039670944,-0.023754199966788292,7.450580596923828e-09,0.0,0.021614594385027885,0.38840338587760925,0.673603224450211,-0.25995925068855286,0.563589870929718,-0.23834466934204102,0.6798452734947205,2.3242926597595215,0.9974641799926758,,,,,,,
4586436000.0,70.6,-1.0299999713897705,12041169408.0,1812.7330359922046,47.0,-0.0063056121580302715,196608.0,350.9093554019928,5.5077470362263625e-15,0.0,2.4173660278320312,-0.0241736751049757,0.10263529419898987,-0.024173660203814507,-1.4901161193847656e-08,0.0,0.019877448678016663,0.45268699526786804,0.6828174812481544,-0.287179172039032,0.7067301869392395,-0.2673017382621765,0.8037914633750916,2.2595715522766113,0.9974155426025391,,,,,,,
4586436000.0,70.87,-1.0800000429153442,12041169408.0,1773.6127345951063,48.0,-0.009076060727238655,200704.0,353.2187659740448,5.4452969910911975e-15,0.0,2.4227583408355713,-0.02422758750617504,0.10901476442813873,-0.024227583780884743,-3.725290298461914e-09,0.0,-0.003610963001847267,0.46697935461997986,0.661746067495963,-0.2919597029685974,0.6968911290168762,-0.2955706715583801,0.8029274344444275,2.309410572052002,0.9974043369293213,,,,,,,
4586436000.0,69.6,-1.2000000476837158,12041169408.0,1720.312781280291,49.0,-0.009101862087845802,204800.0,355.599728345871,5.483460907562687e-15,0.0,2.4344749450683594,-0.024344749748706818,0.09963402897119522,-0.024344749748706818,0.0,0.0,-0.03363291174173355,0.4451800584793091,0.7167213458157768,-0.20463377237319946,0.7387136816978455,-0.23826667666435242,0.8364283442497253,2.380962371826172,0.9977073669433594,,,,,,,
4586436000.0,73.77,-1.2799999713897705,12041169408.0,1726.3698249962167,50.0,-0.00924576073884964,208896.0,357.9723370075226,5.500808142322455e-15,0.0,2.4714787006378174,-0.024714786559343338,0.10006530582904816,-0.024714786559343338,-9.313225746154785e-10,0.0,-0.060848481953144073,0.4432561695575714,0.6091476465584584,-0.14302337169647217,0.48929786682128906,-0.20387187600135803,0.7090035676956177,2.3726086616516113,0.9975204467773438,,,,,,,
4586436000.0,77.24,-1.3200000524520874,12041169408.0,1806.083898176882,51.0,-0.009230365045368671,212992.0,360.2402272224426,5.138250935843303e-15,0.0,2.462718963623047,-0.02462719939649105,0.12157723307609558,-0.024627188220620155,-1.1175870895385742e-08,0.0,-0.03562543913722038,0.4918783903121948,0.6445744258272175,-0.21956244111061096,0.6283621788024902,-0.25518786907196045,0.8250559568405151,2.267890214920044,0.9972987174987793,,,,,,,
4586436000.0,77.41,-1.190000057220459,12041169408.0,1750.3865738825664,52.0,-0.009388495236635208,217088.0,362.58028173446655,5.610095721308994e-15,0.0,2.464681625366211,-0.024646811187267303,0.08481374382972717,-0.024646814912557602,3.725290298461914e-09,0.0,-0.03497035428881645,0.41042137145996094,0.731558848535221,-0.26991742849349976,0.6614781022071838,-0.3048877716064453,0.7921463251113892,2.340054512023926,0.9973094463348389,,,,,,,
4586436000.0,73.77,-1.100000023841858,12041169408.0,1811.5571036039294,53.0,-0.0058322930708527565,221184.0,364.8413200378418,5.684688830775997e-15,0.0,2.4641075134277344,-0.024641070514917374,0.081554114818573,-0.024641074240207672,2.7939677238464355e-09,0.0,0.06277409195899963,0.3990069031715393,0.6183753741086804,-0.341200053691864,0.6003554463386536,-0.278425931930542,0.6458954215049744,2.261038303375244,0.9974753856658936,,,,,,,
4586436000.0,71.29,-1.25,12041169408.0,1720.480066063733,54.0,-0.011674651876091957,225280.0,367.22205090522766,5.910202882652982e-15,0.0,2.4326653480529785,-0.024326657876372337,0.09248161315917969,-0.02432665228843689,-5.587935447692871e-09,0.0,0.02475101500749588,0.4294131100177765,0.7658657369177526,-0.5259113907814026,0.79547518491745,-0.5011603832244873,0.8874478340148926,2.3807308673858643,0.9974544048309326,,,,,,,
4586436000.0,70.82,-1.1799999475479126,12041169408.0,1787.8036918323285,55.0,-0.00652140099555254,229376.0,369.5131301879883,5.414071968523615e-15,0.0,2.469299793243408,-0.024692993611097336,0.08544044196605682,-0.024692997336387634,3.725290298461914e-09,0.0,0.00871156994253397,0.4133360683917999,0.703451268784343,-0.28168895840644836,0.6707583069801331,-0.27297738194465637,0.7590236067771912,2.29107928276062,0.9975709915161133,,,,,,,
4586436000.0,72.35,-1.0099999904632568,12041169408.0,1777.5801139625842,56.0,-0.007471764925867319,233472.0,371.8173863887787,5.708974959439672e-15,0.0,2.473841428756714,-0.024738408625125885,0.08869337290525436,-0.024738414213061333,6.51925802230835e-09,0.0,-0.017042705789208412,0.4208794832229614,0.7199757764081454,-0.32042980194091797,0.6994660496711731,-0.3374725580215454,0.7953530550003052,2.3042562007904053,0.9976606369018555,,,,,,,
4586436000.0,73.56,-0.9300000071525574,12041169408.0,1753.188130968845,57.0,-0.0049550035037100315,237568.0,374.153701543808,5.1937620870745604e-15,0.0,2.5080370903015137,-0.025080375373363495,0.06849785149097443,-0.025080369785428047,-5.587935447692871e-09,0.0,-0.0116712786257267,0.36999043822288513,0.5365790802406112,-0.11890436708927155,0.38269054889678955,-0.13057564198970795,0.5435039401054382,2.336315155029297,0.9975991249084473,,,,,,,
4586436000.0,72.21,-0.6399999856948853,12041169408.0,1787.771692532146,58.0,-0.004970609210431576,241664.0,376.4448218345642,5.02028973947688e-15,0.0,2.4945321083068848,-0.024945322424173355,0.07358643412590027,-0.024945320561528206,-1.862645149230957e-09,0.0,0.016165684908628464,0.38333722949028015,0.592663632221093,-0.20480798184871674,0.46035486459732056,-0.18864229321479797,0.6006264090538025,2.2911202907562256,0.9977169036865234,,,,,,,
4586436000.0,69.92,-1.0,12041169408.0,1767.7985311725554,59.0,-0.009413977153599262,245760.0,378.76182794570923,5.693362448155881e-15,0.0,2.4900126457214355,-0.024900123476982117,0.1026567816734314,-0.024900125339627266,1.862645149230957e-09,0.0,-0.014040172100067139,0.45295313000679016,0.5700916038497441,-0.25754934549331665,0.5216281414031982,-0.2715895175933838,0.6908206343650818,2.3170061111450195,0.9972050189971924,,,,,,,
4586436000.0,72.87,-0.8299999833106995,12041169408.0,1764.5574721155685,60.0,-0.004045666195452213,249856.0,381.0830898284912,5.054984208996416e-15,0.0,2.4718074798583984,-0.024718081578612328,0.06139792874455452,-0.02471807412803173,-7.450580596923828e-09,0.0,-0.013210751116275787,0.3502160310745239,0.6191603591977595,-0.09371134638786316,0.39958253502845764,-0.10692210495471954,0.5674988031387329,2.3212618827819824,0.9974582195281982,,,,,,,
4586436000.0,74.44,-0.8899999856948853,12041169408.0,1779.7521488754326,61.0,-0.009457355365157127,253952.0,383.3845338821411,5.594483210025203e-15,0.0,2.4644689559936523,-0.02464468590915203,0.08348337560892105,-0.02464468963444233,3.725290298461914e-09,0.0,-0.049842555075883865,0.4056139290332794,0.6477313558976897,-0.1716802418231964,0.45487871766090393,-0.22152279317378998,0.683401346206665,2.3014440536499023,0.9977405071258545,,,,,,,
4586436000.0,72.53,-1.0700000524520874,12041169408.0,1805.6981650582552,62.0,-0.007043191231787205,258048.0,385.6529085636139,5.5268289944621074e-15,0.0,2.4429261684417725,-0.02442925050854683,0.07471437007188797,-0.024429261684417725,1.1175870895385742e-08,0.0,-0.022911574691534042,0.38592764735221863,0.6826190094997717,-0.23626667261123657,0.5070917010307312,-0.2591782212257385,0.685039222240448,2.2683746814727783,0.9972541332244873,,,,,,,
4633204000.0,71.4,-1.2000000476837158,12041169408.0,1791.8526389194399,63.0,-0.01017800997942686,262144.0,387.9388108253479,5.1035564663237665e-15,0.0,2.4600610733032227,-0.02460060454905033,0.08029142022132874,-0.02460061013698578,5.587935447692871e-09,0.0,-0.04230765625834465,0.39853695034980774,0.6577752612899117,-0.18973225355148315,0.4976857006549835,-0.2320399284362793,0.6812600493431091,2.285902261734009,0.997614860534668,,,,,,,
,,,,,,,,,,,,,,,,,,,,,,,,,,0.003703565336763859,0.11082842200994492,0.09548910707235336,0.003703565336763859,0.11082842200994492,0.09548910707235336,
,,,,,,,,,,,,,,,,,,,,,,,,,,0.003023172030225396,0.08461187779903412,0.08648256212472916,0.003023172030225396,0.08461187779903412,0.08648256212472916,
,,,,,,,,,,,,,,,,,,,,,,,,,,0.002261073561385274,0.07495566457509995,0.0786786749958992,0.002261073561385274,0.07495566457509995,0.0786786749958992,
,,,,,,,,,,,,,,,,,,,,,,,,,,0.0023817908950150013,0.07083272188901901,0.07392098009586334,0.0023817908950150013,0.07083272188901901,0.07392098009586334,
,,,,,,,,,,,,,,,,,,,,,,,,,,0.002345009706914425,0.06776000559329987,0.06928654760122299,0.002345009706914425,0.06776000559329987,0.06928654760122299,
,,,,,,,,,,,,,,,,,,,,,,,,,,0.0017495661741122603,0.061277538537979126,0.06434496492147446,0.0017495661741122603,0.061277538537979126,0.06434496492147446,
,,,,,,,,,,,,,,,,,,,,,,,,,,,,,,,,-1.53
4635380000.0,73.73,-1.3799999952316284,11990521856.0,16.960123947346048,64.0,-0.011683836579322815,266240.0,629.4464797973633,5.691627724679904e-15,0.0,2.4748644828796387,-0.024748636409640312,0.07792931795120239,-0.02474864386022091,7.450580596923828e-09,0.0,-0.03380231559276581,0.3933876156806946,0.7918027026692857,-0.36138832569122314,0.6326976418495178,-0.39519065618515015,0.8621507287025452,241.50766897201538,0.9973716735839844,,,,,,,
4635380000.0,73.22,-1.3600000143051147,12041169408.0,1766.6087613561776,65.0,-0.008973930962383747,270336.0,631.7650463581085,5.381112222480056e-15,0.0,2.473148822784424,-0.02473149448633194,0.06855344772338867,-0.024731487035751343,-7.450580596923828e-09,0.0,-0.015120141208171844,0.37001579999923706,0.7990660341691496,-0.40067610144615173,0.6217681765556335,-0.4157962501049042,0.8254554271697998,2.3185665607452393,0.9973852634429932,,,,,,,
4635380000.0,72.95,-0.9800000190734863,12041169408.0,1722.916181595545,66.0,-0.0073577240109443665,274432.0,634.142410993576,5.6968318951078345e-15,0.0,2.473017692565918,-0.024730173870921135,0.0727623924612999,-0.024730175733566284,2.3283064365386963e-09,0.0,0.01626472920179367,0.38117673993110657,0.7680480102586237,-0.4537990391254425,0.6523506045341492,-0.43753427267074585,0.7914569973945618,2.3773646354675293,0.9973499774932861,,,,,,,
4635380000.0,73.62,-1.1799999475479126,12041169408.0,1774.968923239655,67.0,-0.011594202369451523,278528.0,636.4500570297241,5.2562121322097255e-15,0.0,2.4031598567962646,-0.024031585082411766,0.08664117753505707,-0.02403159812092781,1.30385160446167e-08,0.0,0.050563961267471313,0.4132400155067444,0.7539809371729397,-0.4793437719345093,0.7491492629051208,-0.4287797808647156,0.8331400156021118,2.3076460361480713,0.9971060752868652,,,,,,,
4635380000.0,72.46,-1.25,12041169408.0,1740.265272336875,68.0,-0.006565463729202747,282624.0,638.8037211894989,5.297845495633169e-15,0.0,2.3853979110717773,-0.023853987455368042,0.060056138783693314,-0.023853978142142296,-9.313225746154785e-09,0.0,0.05635868012905121,0.3420007824897766,0.8112645513469929,-0.46286505460739136,0.6975545883178711,-0.40650635957717896,0.7872276306152344,2.3536641597747803,0.997473955154419,,,,,,,
4635380000.0,74.68,-0.7400000095367432,12041169408.0,1731.849856949927,69.0,-0.0074007767252624035,286720.0,641.1688222885132,6.369904603786836e-15,0.0,2.288839817047119,-0.022888390347361565,0.07557214051485062,-0.02288839779794216,7.450580596923828e-09,0.0,0.08191816508769989,0.38009074330329895,0.7927258808505264,-0.5069466829299927,0.7781869769096375,-0.42502856254577637,0.8348621129989624,2.3651010990142822,0.9976317882537842,,,,,,,
4635380000.0,73.39,-0.5600000023841858,12041169408.0,1680.3527304374838,70.0,-0.0027457585092633963,290816.0,643.6064057350159,6.085409953726639e-15,0.0,2.2442855834960938,-0.022442851215600967,0.04716839641332626,-0.022442854940891266,3.259629011154175e-09,0.0,0.10628234595060349,0.28820329904556274,0.818306854710331,-0.34344932436943054,0.6331197619438171,-0.23716695606708527,0.676129162311554,2.4375834465026855,0.997434139251709,,,,,,,
4635380000.0,70.72,-0.5699999928474426,12041169408.0,1724.7529517544374,71.0,-0.005226549226790667,294912.0,645.9812386035919,7.696968062909093e-15,0.0,2.1246049404144287,-0.021246090531349182,0.044502243399620056,-0.0212460495531559,-4.0978193283081055e-08,0.0,0.08477278053760529,0.2860734760761261,0.9042283977512299,-0.5312526226043701,0.9124940037727356,-0.44647979736328125,0.9243984818458557,2.37483286857605,0.9974298477172852,,,,,,,
4635380000.0,71.16,-0.8199999928474426,12041169408.0,1789.9422383950327,72.0,-0.007303128484636545,299008.0,648.2695806026459,6.395925455926488e-15,0.0,2.209202289581299,-0.022092027589678764,0.0548706129193306,-0.022092022001743317,-5.587935447692871e-09,0.0,0.04520349204540253,0.3282136023044586,0.8610134200644004,-0.49091362953186035,0.7849778532981873,-0.44571012258529663,0.8803799748420715,2.288341999053955,0.9972467422485352,,,,,,,
4635380000.0,69.18,-1.25,12041169408.0,1814.380413836076,73.0,-0.011727171950042248,303104.0,650.5271005630493,6.5780714209040525e-15,0.0,2.221966505050659,-0.022219670936465263,0.05681975185871124,-0.022219665348529816,-5.587935447692871e-09,0.0,0.029352258890867233,0.3358652889728546,0.8444805933007689,-0.46964865922927856,0.7843829393386841,-0.4402964115142822,0.851672887802124,2.2575199604034424,0.9975340366363525,,,,,,,
4635380000.0,70.46,-1.1200000047683716,12041169408.0,1747.6076446514915,74.0,-0.008157234638929367,307200.0,652.8708760738373,6.229392002232714e-15,0.0,2.2887682914733887,-0.022887669503688812,0.05070537328720093,-0.022887682542204857,1.30385160446167e-08,0.0,0.017949089407920837,0.31798312067985535,0.8133718848781679,-0.30081772804260254,0.6390329599380493,-0.2828686237335205,0.7360638380050659,2.343775510787964,0.9980988502502441,,,,,,,
4635380000.0,71.81,-0.9399999976158142,12041169408.0,1762.0237688354903,75.0,-0.007888488471508026,311296.0,655.1954758167267,6.01428629121159e-15,0.0,2.2996766567230225,-0.022996770218014717,0.06869423389434814,-0.02299676649272442,-3.725290298461914e-09,0.0,0.011451324447989464,0.37052780389785767,0.7699681047814111,-0.2623860836029053,0.6251002550125122,-0.25093474984169006,0.7725503444671631,2.3245997428894043,0.9974746704101562,,,,,,,
4635380000.0,71.76,-1.0299999713897705,12041169408.0,1770.9679025601504,76.0,-0.006242871750146151,315392.0,657.508335351944,6.062858548538941e-15,0.0,2.317387342453003,-0.02317386493086815,0.03757505491375923,-0.023173872381448746,7.450580596923828e-09,0.0,-0.008433046750724316,0.2740389108657837,0.8470383101603132,-0.2042846977710724,0.5925205945968628,-0.21271774172782898,0.7006819248199463,2.312859535217285,0.9974825382232666,,,,,,,
4635380000.0,72.05,-0.7200000286102295,12041169408.0,1707.9138135192447,77.0,-0.006813548505306244,319488.0,659.9065828323364,5.856426454897701e-15,0.0,2.3455045223236084,-0.02345503680408001,0.04290717840194702,-0.023455044254660606,7.450580596923828e-09,0.0,-0.014265789650380611,0.29262903332710266,0.7762455690506591,-0.14324508607387543,0.518917977809906,-0.1575108766555786,0.6186308860778809,2.398247480392456,0.997401237487793,,,,,,,
4635380000.0,73.87,-0.8299999833106995,12041169408.0,1698.4038129159353,78.0,-0.008077170699834824,323584.0,662.3182590007782,5.950101522600448e-15,0.0,2.3411946296691895,-0.023411938920617104,0.062463052570819855,-0.0234119463711977,7.450580596923828e-09,0.0,-0.04493342339992523,0.35062387585639954,0.7784337553021979,-0.14961740374565125,0.6219056248664856,-0.19455081224441528,0.7448857426643372,2.4116761684417725,0.9975330829620361,,,,,,,
4635380000.0,74.74,-0.5899999737739563,12041169408.0,1736.6556189728342,79.0,-0.00013968534767627716,327680.0,664.6768152713776,6.01428629121159e-15,0.0,2.4063472747802734,-0.024063482880592346,0.028104562312364578,-0.02406347170472145,-1.1175870895385742e-08,0.0,0.024014189839363098,0.235894113779068,0.7811564829310873,-0.014248371124267578,0.46125954389572144,0.009765819646418095,0.5042550563812256,2.3585562705993652,0.9976568222045898,,,,,,,
4635380000.0,71.23,-0.3499999940395355,12041169408.0,1762.612567112908,80.0,-0.005595186725258827,331776.0,667.0006384849548,5.7141791298676026e-15,0.0,2.3770151138305664,-0.023770151659846306,0.059528648853302,-0.023770149797201157,-1.862645149230957e-09,0.0,0.0042908890172839165,0.3450622260570526,0.7508967727781143,-0.13713563978672028,0.5645440220832825,-0.1328447461128235,0.6913655996322632,2.3238232135772705,0.9972913265228271,,,,,,,
4635380000.0,70.88,-1.0499999523162842,12041169408.0,1789.4397858822126,81.0,-0.008258453570306301,335872.0,669.2896230220795,5.629177679544739e-15,0.0,2.393223762512207,-0.023932233452796936,0.06144081801176071,-0.023932237178087234,3.725290298461914e-09,0.0,-0.020113814622163773,0.350009948015213,0.7925708138652854,-0.2332427203655243,0.6445912718772888,-0.25335654616355896,0.7685028314590454,2.288984537124634,0.9977383613586426,,,,,,,
4635380000.0,69.79,-1.2400000095367432,12041169408.0,1748.1228074781152,82.0,-0.009247181005775928,339968.0,671.6327078342438,6.8296063249206895e-15,0.0,2.3768396377563477,-0.023768393322825432,0.06826517730951309,-0.02376839518547058,1.862645149230957e-09,0.0,-0.02587088942527771,0.3686383366584778,0.7456761814769771,-0.19330573081970215,0.6358538269996643,-0.21917663514614105,0.7309825420379639,2.3430848121643066,0.9974064826965332,,,,,,,
4635380000.0,68.29,-1.0800000429153442,12041169408.0,1723.2530072649008,83.0,-0.008972622454166412,344064.0,674.0096077919006,6.390721285498557e-15,0.0,2.363424062728882,-0.023634232580661774,0.08702994138002396,-0.02363424003124237,7.450580596923828e-09,0.0,-0.053662821650505066,0.4137897789478302,0.752392365485187,-0.22571298480033875,0.6946209073066711,-0.279375821352005,0.8315679430961609,2.3768999576568604,0.9981236457824707,,,,,,,
4635380000.0,70.87,-0.8799999952316284,12041169408.0,1767.140823989685,84.0,-0.005901063792407513,348160.0,676.3274762630463,6.774095173689432e-15,0.0,2.3876423835754395,-0.023876424878835678,0.04998274892568588,-0.02387642301619053,-9.313225746154785e-10,0.0,0.029300455003976822,0.3148510456085205,0.8151194603957546,-0.1992565393447876,0.6999889612197876,-0.1699560582637787,0.7322503328323364,2.31786847114563,0.9975123405456543,,,,,,,
4635380000.0,71.93,-0.5799999833106995,12041169408.0,1724.828104109329,85.0,-0.005207792390137911,352256.0,678.702205657959,7.488801245791876e-15,0.0,2.3441519737243652,-0.023441528901457787,0.045505672693252563,-0.02344151958823204,-9.313225746154785e-09,0.0,0.0217383224517107,0.3009333908557892,0.8700496162436446,-0.268610417842865,0.7805026173591614,-0.24687206745147705,0.8347983956336975,2.3747293949127197,0.9973733425140381,,,,,,,
4635380000.0,71.99,-0.6899999976158142,12041169408.0,1722.8310023292493,86.0,-0.005494231358170509,356352.0,681.079687833786,7.249409406107077e-15,0.0,2.365583896636963,-0.023655839264392853,0.0719449371099472,-0.023655839264392853,-4.656612873077393e-10,0.0,0.042001403868198395,0.3770417273044586,0.7435340936405581,-0.18737156689167023,0.7144309282302856,-0.14537015557289124,0.7445167899131775,2.3774821758270264,0.9976925849914551,,,,,,,
4635380000.0,71.17,-0.8100000023841858,12041169408.0,1776.338574778323,87.0,-0.009022350423038006,360448.0,683.3855545520782,7.308390004290288e-15,0.0,2.3390703201293945,-0.023390699177980423,0.07488395273685455,-0.02339070290327072,3.725290298461914e-09,0.0,0.025396175682544708,0.3862115144729614,0.8207542261666316,-0.40513405203819275,0.8603775501251221,-0.37973788380622864,0.9122224450111389,2.3058667182922363,0.9979760646820068,,,,,,,
4635380000.0,71.69,-1.1100000143051147,12041169408.0,1771.719083240802,88.0,-0.005927713122218847,364544.0,685.6974334716797,7.585945760446577e-15,0.0,2.311511993408203,-0.023115133866667747,0.05847650021314621,-0.023115118965506554,-1.4901161193847656e-08,0.0,0.04495043307542801,0.3390582799911499,0.8077973042687824,-0.2659814953804016,0.7552075982093811,-0.2210310697555542,0.7733830809593201,2.3118789196014404,0.9974555969238281,,,,,,,
4635380000.0,73.39,-0.7300000190734863,12041169408.0,1775.0470483005552,89.0,-0.0048116291873157024,368640.0,688.0049779415131,7.134917656692608e-15,0.0,2.3521997928619385,-0.02352200262248516,0.05593298748135567,-0.023521997034549713,-5.587935447692871e-09,0.0,0.03181249648332596,0.3329879939556122,0.7603483837667273,-0.20577478408813477,0.6409521698951721,-0.1739622801542282,0.6802027821540833,2.307544469833374,0.9974291324615479,,,,,,,
4635380000.0,72.95,-0.38999998569488525,12041169408.0,1736.9124905887036,90.0,-0.004249049350619316,372736.0,690.3631854057312,6.8382799423005736e-15,0.0,2.4154322147369385,-0.02415432408452034,0.06134306266903877,-0.02415432222187519,-9.313225746154785e-10,0.0,-0.003189648734405637,0.3502940535545349,0.8116905026691879,-0.20722448825836182,0.6594672799110413,-0.2104141265153885,0.8072287440299988,2.3582074642181396,0.997286319732666,,,,,,,
4635380000.0,73.6,-0.41999998688697815,12041169408.0,1748.3348646475247,91.0,-0.0019866107031702995,376832.0,692.7059860229492,7.539108226595204e-15,0.0,2.3574156761169434,-0.023574160411953926,0.04938911646604538,-0.023574156686663628,-3.725290298461914e-09,0.0,0.018119968473911285,0.31380558013916016,0.7802435413464294,-0.1554730087518692,0.5907540321350098,-0.1373530626296997,0.6694063544273376,2.3428006172180176,0.9975242614746094,,,,,,,
4635380000.0,74.15,-0.6899999976158142,12041169408.0,1741.8628060690694,92.0,-0.006254339125007391,380928.0,695.0574915409088,7.351758091189708e-15,0.0,2.3490450382232666,-0.02349044941365719,0.04433654248714447,-0.02349044941365719,0.0,0.0,-0.021897148340940475,0.2970103323459625,0.8490805969286694,-0.15494582056999207,0.6402587294578552,-0.17684297263622284,0.7645378708839417,2.3515055179595947,0.9974641799926758,,,,,,,
4635380000.0,75.97,-0.550000011920929,12041169408.0,1782.4641731829647,93.0,-0.003987164236605167,385024.0,697.3554339408875,7.058589823749628e-15,0.0,2.417851448059082,-0.0241785179823637,0.043331973254680634,-0.024178514257073402,-3.725290298461914e-09,0.0,-0.005824171006679535,0.29436570405960083,0.7831046615503245,-0.08515816926956177,0.5066832304000854,-0.0909823328256607,0.6320655345916748,2.2979423999786377,0.9978852272033691,,,,,,,
4635380000.0,74.79,-0.6100000143051147,12041169408.0,1724.3511536378467,94.0,-0.006847626995295286,389120.0,699.7308201789856,6.643990912991171e-15,0.0,2.391815662384033,-0.023918161168694496,0.0603599026799202,-0.02391815558075905,-5.587935447692871e-09,0.0,-0.031745295971632004,0.34603652358055115,0.7827216894029271,-0.16431427001953125,0.6249971389770508,-0.19605958461761475,0.7423586249351501,2.3753862380981445,0.9975924491882324,,,,,,,
4635380000.0,70.3,-0.9200000166893005,12041169408.0,1705.8835043482984,95.0,-0.007281659636646509,393216.0,702.131922006607,6.3629657098829284e-15,0.0,2.384566068649292,-0.023845655843615532,0.04146425426006317,-0.02384565956890583,3.725290298461914e-09,0.0,-0.027887042611837387,0.28665465116500854,0.8563936795816669,-0.12804293632507324,0.6134347319602966,-0.15592999756336212,0.7564359307289124,2.40110182762146,0.9974398612976074,,,,,,,
,,,,,,,,,,,,,,,,,,,,,,,,,,0.005566456355154514,0.06917066127061844,0.05759534239768982,0.005566456355154514,0.06917066127061844,0.05759534239768982,
,,,,,,,,,,,,,,,,,,,,,,,,,,0.0027844009455293417,0.05047501251101494,0.05059513822197914,0.0027844009455293417,0.05047501251101494,0.05059513822197914,
,,,,,,,,,,,,,,,,,,,,,,,,,,0.002978796372190118,0.047793373465538025,0.04936575889587402,0.002978796372190118,0.047793373465538025,0.04936575889587402,
,,,,,,,,,,,,,,,,,,,,,,,,,,0.002685667248442769,0.04497642442584038,0.045984357595443726,0.002685667248442769,0.04497642442584038,0.045984357595443726,
,,,,,,,,,,,,,,,,,,,,,,,,,,0.002599335741251707,0.04343792423605919,0.04396912828087807,0.002599335741251707,0.04343792423605919,0.04396912828087807,
,,,,,,,,,,,,,,,,,,,,,,,,,,0.002254348248243332,0.04163283109664917,0.042242418974637985,0.002254348248243332,0.04163283109664917,0.042242418974637985,
,,,,,,,,,,,,,,,,,,,,,,,,,,,,,,,,-0.48
4635636000.0,70.18,-0.8299999833106995,11990521856.0,17.00828081979219,96.0,-0.007286119740456343,397312.0,942.9557914733887,6.151329445813758e-15,0.0,2.4039156436920166,-0.02403916046023369,0.04664846509695053,-0.02403915673494339,-3.725290298461914e-09,0.0,0.0691666528582573,0.29754748940467834,0.8752785006769892,-0.3508986234664917,0.8220574259757996,-0.2817319631576538,0.8425306081771851,240.82386946678162,0.9972765445709229,,,,,,,
4635636000.0,70.66,-0.6800000071525574,12041169408.0,1722.808542668366,97.0,-0.0037178732454776764,401408.0,945.333304643631,6.912873051767576e-15,0.0,2.3775432109832764,-0.02377541922032833,0.058916814625263214,-0.023775432258844376,1.30385160446167e-08,0.0,0.10004638135433197,0.3284062445163727,0.8618677909249,-0.3772728443145752,0.8786511421203613,-0.27722644805908203,0.8836168050765991,2.3775131702423096,0.9972856044769287,,,,,,,
4635636000.0,73.21,-0.44999998807907104,12041169408.0,1718.2927745138634,98.0,-0.003008089028298855,405504.0,947.7170660495758,6.423681031542117e-15,0.0,2.430911064147949,-0.024309109896421432,0.04783026501536369,-0.024309109896421432,0.0,0.0,0.02715461701154709,0.30813363194465637,0.8071765623569651,-0.16747763752937317,0.6441245675086975,-0.14032304286956787,0.7017124891281128,2.383761405944824,0.9972600936889648,,,,,,,
4635636000.0,73.18,-0.4399999976158142,12041169408.0,1765.9032914920024,99.0,-0.002151545137166977,409600.0,950.0365588665009,6.477457459297398e-15,0.0,2.428487777709961,-0.024284880608320236,0.03922891616821289,-0.024284876883029938,-2.7939677238464355e-09,0.0,0.05602368712425232,0.27447691559791565,0.8389620121056327,-0.15889781713485718,0.6377200484275818,-0.10287413001060486,0.6839772462844849,2.319492816925049,0.9970738887786865,,,,,,,
4635636000.0,74.34,-0.4699999988079071,12041169408.0,1774.9007069799484,100.0,-0.006175699643790722,413696.0,952.3442935943604,5.771425004574837e-15,0.0,2.427018642425537,-0.024270186200737953,0.03005315363407135,-0.024270186200737953,0.0,0.0,0.02146194502711296,0.24425451457500458,0.9091219691094155,-0.2216993272304535,0.766379177570343,-0.20023737847805023,0.8102389574050903,2.307734727859497,0.9975354671478271,,,,,,,
4635636000.0,73.47,-0.4399999976158142,12041169408.0,1751.0796980740524,101.0,-0.0018707910785451531,417792.0,954.6834218502045,5.821731985378165e-15,0.0,2.475550651550293,-0.024755507707595825,0.038717348128557205,-0.024755505844950676,-1.862645149230957e-09,0.0,0.030965398997068405,0.276576429605484,0.842346968435974,-0.13888180255889893,0.6607546210289001,-0.10791639983654022,0.6965687274932861,2.339128255844116,0.9987301826477051,,,,,,,
4635636000.0,70.56,-0.3400000035762787,12041169408.0,1773.147772453248,102.0,-0.002595424884930253,421888.0,956.9934380054474,5.776629175002768e-15,0.0,2.49106502532959,-0.024910641834139824,0.03276059776544571,-0.02491064928472042,7.450580596923828e-09,0.0,0.011044579558074474,0.2557639181613922,0.8653725321789879,-0.15554092824459076,0.639938473701477,-0.144496351480484,0.6970636248588562,2.31001615524292,0.9974231719970703,,,,,,,
4635636000.0,71.6,-0.4699999988079071,12041169408.0,1783.1394457840004,103.0,-0.002886049449443817,425984.0,959.2905101776123,6.147859998861804e-15,0.0,2.528207778930664,-0.025282086804509163,0.04860479757189751,-0.025282077491283417,-9.313225746154785e-09,0.0,-0.02096446417272091,0.31111690402030945,0.783824310210449,-0.007256597280502319,0.568623960018158,-0.028221063315868378,0.669144868850708,2.297072172164917,0.9972891807556152,,,,,,,
4635636000.0,72.18,-0.41999998688697815,12041169408.0,1716.0404137586736,104.0,-0.005346900783479214,430080.0,961.6774003505707,5.951836246076425e-15,0.0,2.489798069000244,-0.0248979814350605,0.03864289075136185,-0.024897979572415352,-2.7939677238464355e-09,0.0,0.009636515751481056,0.2778700590133667,0.8837643674341067,-0.21863305568695068,0.7454541325569153,-0.20899653434753418,0.8150272369384766,2.386890172958374,0.9971349239349365,,,,,,,
4635636000.0,70.79,-0.6100000143051147,12041169408.0,1807.6220134684647,105.0,-0.003908392507582903,434176.0,963.9433608055115,6.076736336346755e-15,0.0,2.5137076377868652,-0.025137096643447876,0.04024016112089157,-0.025137076154351234,-2.0489096641540527e-08,0.0,-0.04123196005821228,0.28071245551109314,0.8384720438124817,-0.08198954910039902,0.5947861671447754,-0.1232215166091919,0.6984540224075317,2.265960454940796,0.9974613189697266,,,,,,,
4635636000.0,72.07,-0.5199999809265137,12041169408.0,1765.697476780593,106.0,-0.004922342952340841,438272.0,966.2631239891052,6.0385724198752655e-15,0.0,2.493570327758789,-0.024935707449913025,0.059301700443029404,-0.024935701861977577,-5.587935447692871e-09,0.0,-0.051131509244441986,0.34061312675476074,0.8371104152926404,-0.14600735902786255,0.680210292339325,-0.19713884592056274,0.843946099281311,2.31976318359375,0.9974281787872314,,,,,,,
4635636000.0,71.7,-1.0099999904632568,12041169408.0,1737.8795567462964,107.0,-0.011588186025619507,442368.0,968.620019197464,6.234596172660645e-15,0.0,2.490422248840332,-0.024904217571020126,0.09108637273311615,-0.024904221296310425,3.725290298461914e-09,0.0,-0.08331166952848434,0.41865822672843933,0.7722157028767339,-0.24242623150348663,0.7244763374328613,-0.3257378935813904,0.8771981596946716,2.3568952083587646,0.9973983764648438,,,,,,,
4635636000.0,73.71,-0.8799999952316284,12041169408.0,1761.836563904391,108.0,-0.004205117467790842,446464.0,970.9448659420013,5.995204332975845e-15,0.0,2.513713836669922,-0.02513713575899601,0.04605045169591904,-0.02513713762164116,1.3969838619232178e-09,0.0,-0.021516019478440285,0.30275458097457886,0.8126539683104046,-0.014799422584474087,0.5783135294914246,-0.0363154411315918,0.6994690299034119,2.3248467445373535,0.9975636005401611,,,,,,,
4635636000.0,74.65,-0.4699999988079071,12041169408.0,1792.992454554392,109.0,-0.0036276199389249086,450560.0,973.2293150424957,6.553785292240377e-15,0.0,2.4840307235717773,-0.024840321391820908,0.04548562318086624,-0.024840306490659714,-1.4901161193847656e-08,0.0,0.0017128023318946362,0.30164635181427,0.8532127450150966,-0.095271997153759,0.6879304647445679,-0.09355919808149338,0.7873247861862183,2.2844491004943848,0.9977233409881592,,,,,,,
4635636000.0,74.25,-0.6700000166893005,12041169408.0,1783.4819026595571,110.0,-0.006975734140723944,454656.0,975.5259461402893,6.323067069935462e-15,0.0,2.5003223419189453,-0.0250032227486372,0.03903690353035927,-0.0250032227486372,0.0,0.0,-0.002233413979411125,0.27944210171699524,0.9003609536647169,-0.23343391716480255,0.8468224406242371,-0.23566734790802002,0.8852726817131042,2.296631097793579,0.997277021408081,,,,,,,
4635636000.0,75.77,-0.7300000190734863,12041169408.0,1747.8499840881364,111.0,-0.004944157786667347,458752.0,977.869396686554,6.387251838546604e-15,0.0,2.50319504737854,-0.02503194659948349,0.07290861010551453,-0.02503195032477379,3.725290298461914e-09,0.0,0.02274280972778797,0.38122886419296265,0.7945837261787306,-0.24167850613594055,0.8153396248817444,-0.21893569827079773,0.8411402106285095,2.3434505462646484,0.9972414970397949,,,,,,,
4635636000.0,75.15,-0.4300000071525574,12041169408.0,1797.9069382468683,112.0,-0.003059173235669732,462848.0,980.1476013660431,6.130512764102036e-15,0.0,2.5282742977142334,-0.025282736867666245,0.04383768513798714,-0.025282742455601692,4.6566128730773926e-09,0.0,0.03830673545598984,0.29364776611328125,0.8424000520567723,-0.12154596298933029,0.7061095833778381,-0.08323922753334045,0.7396882176399231,2.2782046794891357,0.9973845481872559,,,,,,,
4635636000.0,74.14,-0.36000001430511475,12041169408.0,1774.631010704474,113.0,-0.0020418004132807255,466944.0,982.4556868076324,6.349087922075114e-15,0.0,2.5145537853240967,-0.02514553628861904,0.05822017788887024,-0.02514553815126419,2.3283064365386963e-09,0.0,-0.009255681186914444,0.3411497175693512,0.8430551935132102,-0.18901874125003815,0.7552324533462524,-0.1982744038105011,0.8611355423927307,2.3080854415893555,0.997586727142334,,,,,,,
4635636000.0,74.26,-0.36000001430511475,12041169408.0,1744.1937787646953,114.0,-0.002920691855251789,471040.0,984.8040497303009,7.126244039312724e-15,0.0,2.500579833984375,-0.025005796924233437,0.06710916757583618,-0.025005796924233437,0.0,0.0,0.015175752341747284,0.3660884499549866,0.8318362940187448,-0.2372101992368698,0.8396161198616028,-0.22203446924686432,0.8927295207977295,2.348362922668457,0.9974844455718994,,,,,,,
4635636000.0,74.78,-0.49000000953674316,12041169408.0,1750.6598329951553,115.0,-0.005556536838412285,475136.0,987.1437389850616,7.011752289898254e-15,0.0,2.4439449310302734,-0.024439450353384018,0.04309696704149246,-0.02443944849073887,-1.3969838619232178e-09,0.0,0.02130747027695179,0.2928495407104492,0.8931873649140555,-0.2622312605381012,0.8899253010749817,-0.24092380702495575,0.8960520029067993,2.339689254760742,0.997563362121582,,,,,,,
4635636000.0,73.59,-0.41999998688697815,12041169408.0,1721.4941183673498,116.0,-0.0013184209819883108,479232.0,989.5230674743652,7.20951076615961e-15,0.0,2.4487428665161133,-0.02448742464184761,0.04849471151828766,-0.02448742836713791,3.725290298461914e-09,0.0,0.03702085465192795,0.3092607855796814,0.83047491071944,-0.19319036602973938,0.6946450471878052,-0.15616953372955322,0.751117467880249,2.379328489303589,0.9974923133850098,,,,,,,
4635636000.0,71.88,-0.11999999731779099,12041169408.0,1725.5385653775181,117.0,-0.0022002963814884424,483328.0,991.8968191146851,7.608497165634276e-15,0.0,2.4378879070281982,-0.024378890171647072,0.0690019279718399,-0.024378878995776176,-1.1175870895385742e-08,0.0,0.049307681620121,0.36824682354927063,0.7978344715330864,-0.2055024355649948,0.7966291904449463,-0.1561947464942932,0.8190029263496399,2.373751640319824,0.997342586517334,,,,,,,
4635636000.0,72.22,-0.14000000059604645,12041169408.0,1745.677021888904,118.0,-0.00029376219026744366,487424.0,994.243186712265,6.9371591804312516e-15,0.0,2.439356565475464,-0.024393578991293907,0.062185660004615784,-0.024393565952777863,-1.30385160446167e-08,0.0,0.027530286461114883,0.35162994265556335,0.7862128583986581,-0.17237244546413422,0.7088286876678467,-0.14484216272830963,0.7604926824569702,2.346367597579956,0.99776291847229,,,,,,,
4635636000.0,72.22,-0.25,12041169408.0,1735.1995776504189,119.0,-0.0016178046353161335,491520.0,996.6037220954895,8.276365703885347e-15,0.0,2.360342502593994,-0.023603422567248344,0.0336119681596756,-0.023603424429893494,1.862645149230957e-09,0.0,0.021703263744711876,0.2583973705768585,0.8866396225881823,-0.1509573608636856,0.7149356007575989,-0.12925411760807037,0.7674630880355835,2.3605353832244873,0.9974195957183838,,,,,,,
4635636000.0,70.56,-0.23999999463558197,12041169408.0,1795.8347380428952,120.0,-0.0035358492750674486,495616.0,998.8845555782318,8.196568423990414e-15,0.0,2.40212345123291,-0.02402123436331749,0.04037913307547569,-0.02402123436331749,0.0,0.0,-0.022799167782068253,0.283298522233963,0.7644088847671887,-0.03010663017630577,0.47595855593681335,-0.052905790507793427,0.5836666822433472,2.2808334827423096,0.997469425201416,,,,,,,
4635636000.0,75.14,-0.25999999046325684,12041169408.0,1762.4953907522045,121.0,-0.0005906267324462533,499712.0,1001.2085332870483,7.858297346174936e-15,0.0,2.416653633117676,-0.024166537448763847,0.020635604858398438,-0.024166535586118698,-1.862645149230957e-09,0.0,0.016565492376685143,0.20250137150287628,0.900143499498542,-0.07358057796955109,0.6088804602622986,-0.05701508745551109,0.6408255100250244,2.3239777088165283,0.9974825382232666,,,,,,,
4635636000.0,73.87,-0.1899999976158142,12041169408.0,1782.850588511215,122.0,-0.0007393290288746357,503808.0,1003.5059776306152,7.745540320236444e-15,0.0,2.4413890838623047,-0.02441389486193657,0.02783352881669998,-0.02441389113664627,-2.7939677238464355e-09,0.0,0.0034760069102048874,0.23594185709953308,0.8879082540558542,-0.053786009550094604,0.6223769187927246,-0.05031000077724457,0.7047226428985596,2.2974443435668945,0.9976959228515625,,,,,,,
4635636000.0,73.43,-0.28999999165534973,12041169408.0,1741.7667371320426,123.0,-0.0031065065413713455,507904.0,1005.8576128482819,7.658804146437603e-15,0.0,2.4832406044006348,-0.024832405149936676,0.07289908826351166,-0.024832405149936676,0.0,0.0,-0.0007622586563229561,0.38188111782073975,0.7513405688069967,-0.11210624128580093,0.6573486328125,-0.11286850273609161,0.7658182978630066,2.351635217666626,0.99741530418396,,,,,,,
4635636000.0,77.53,-0.550000011920929,12041169408.0,1749.7528057112856,124.0,-0.007389076519757509,512000.0,1008.1985149383545,7.379513666805337e-15,0.0,2.526167392730713,-0.025261687114834785,0.1121794730424881,-0.02526167407631874,-1.30385160446167e-08,0.0,-0.052197910845279694,0.4708380103111267,0.7613230615728706,-0.19576317071914673,0.752492368221283,-0.2479611039161682,0.9637541770935059,2.340902090072632,0.9974143505096436,,,,,,,
4635636000.0,74.84,-0.6499999761581421,12041169408.0,1781.4354127792521,125.0,0.00014788180124014616,516096.0,1010.4977843761444,7.259817746962938e-15,0.0,2.541707754135132,-0.025417083874344826,0.06208673119544983,-0.02541707642376423,-7.450580596923828e-09,0.0,-0.004548858851194382,0.3523962199687958,0.7845596897235365,-0.06947416812181473,0.6410793662071228,-0.07402302324771881,0.7592201828956604,2.299269437789917,0.9977438449859619,,,,,,,
4635636000.0,72.99,-0.009999999776482582,12041169408.0,1779.9804329136016,126.0,-0.0020732316188514233,520192.0,1012.7989332675934,7.409003965896943e-15,0.0,2.5094499588012695,-0.025094499811530113,0.07572997361421585,-0.025094499811530113,0.0,0.0,-0.028929375112056732,0.388149231672287,0.7591978597291613,-0.05493561178445816,0.633876383304596,-0.08386498689651489,0.7909855842590332,2.3011488914489746,0.9974160194396973,,,,,,,
4635636000.0,74.42,-0.30000001192092896,12041169408.0,1793.987213305764,127.0,-0.0017797766486182809,524288.0,1015.082115650177,7.676151381197371e-15,0.0,2.4986891746520996,-0.02498689293861389,0.041901566088199615,-0.024986891075968742,-9.313225746154785e-10,0.0,0.011069724336266518,0.2893112897872925,0.8189505717825304,-0.07973822951316833,0.632709801197052,-0.06866850703954697,0.6799340844154358,2.283182382583618,0.9972639083862305,,,,,,,
,,,,,,,,,,,,,,,,,,,,,,,,,,0.004676584620028734,0.05772330239415169,0.05064016953110695,0.004676584620028734,0.05772330239415169,0.05064016953110695,
,,,,,,,,,,,,,,,,,,,,,,,,,,0.003054580185562372,0.047201212495565414,0.046441201120615005,0.003054580185562372,0.047201212495565414,0.046441201120615005,
,,,,,,,,,,,,,,,,,,,,,,,,,,0.0023250814992934465,0.042968858033418655,0.04331960529088974,0.0023250814992934465,0.042968858033418655,0.04331960529088974,
,,,,,,,,,,,,,,,,,,,,,,,,,,0.002812145510688424,0.04233148321509361,0.04252411797642708,0.002812145510688424,0.04233148321509361,0.04252411797642708,
,,,,,,,,,,,,,,,,,,,,,,,,,,0.0024093841202557087,0.039903800934553146,0.04038239270448685,0.0024093841202557087,0.039903800934553146,0.04038239270448685,
,,,,,,,,,,,,,,,,,,,,,,,,,,0.0026968237943947315,0.03858614340424538,0.039008527994155884,0.0026968237943947315,0.03858614340424538,0.039008527994155884,
,,,,,,,,,,,,,,,,,,,,,,,,,,,,,,,,-1.06
4635896000.0,74.57,-0.17000000178813934,11990521856.0,17.018461837319403,128.0,-0.001633721636608243,528384.0,1255.7619161605835,7.24247051220317e-15,0.0,2.456368923187256,-0.024563686922192574,0.03552372008562088,-0.024563688784837723,1.862645149230957e-09,0.0,0.009382477030158043,0.2664145827293396,0.8262689731988172,-0.028233828023076057,0.5444457530975342,-0.018851352855563164,0.6391742825508118,240.6798005104065,0.9975185394287109,,,,,,,
4635896000.0,69.93,-0.23999999463558197,12041169408.0,1776.1641080610757,129.0,-0.0019331816583871841,532480.0,1258.0680093765259,7.440228988464526e-15,0.0,2.433990001678467,-0.02433990128338337,0.04391825944185257,-0.02433989942073822,-1.862645149230957e-09,0.0,0.016939641907811165,0.2959239184856415,0.8792427039157785,-0.22914518415927887,0.7286829948425293,-0.21220554411411285,0.8515758514404297,2.306093215942383,0.997309684753418,,,,,,,
4635896000.0,71.87,-0.019999999552965164,12041169408.0,1775.580352960777,130.0,0.0017881193198263645,536576.0,1260.3748607635498,6.860831347488272e-15,0.0,2.486497163772583,-0.02486497163772583,0.03872724622488022,-0.02486497163772583,0.0,0.0,0.02797405794262886,0.2769308090209961,0.7828948566582931,-0.02158869057893753,0.5080907344818115,0.006385369226336479,0.5943416953086853,2.306851387023926,0.9973020553588867,,,,,,,
4635896000.0,75.33,-0.11999999731779099,12041169408.0,1765.642673544572,131.0,-0.0055191004648804665,540672.0,1262.6946959495544,7.251144129583054e-15,0.0,2.460449695587158,-0.024604495614767075,0.031086239963769913,-0.024604495614767075,0.0,0.0,-0.002344985492527485,0.24936352670192719,0.8937476759959039,-0.11505134403705597,0.6546112298965454,-0.11739633232355118,0.7650039792060852,2.3198351860046387,0.9981319904327393,,,,,,,
4635896000.0,70.73,-0.4300000071525574,12041169408.0,1740.8189778680237,132.0,-0.001791750779375434,544768.0,1265.0476114749908,7.552986014403018e-15,0.0,2.435480833053589,-0.024354811757802963,0.04901325702667236,-0.024354808032512665,-3.725290298461914e-09,0.0,0.009803302586078644,0.31297653913497925,0.828201107533471,-0.09781578928232193,0.6513530015945435,-0.08801248669624329,0.7550950050354004,2.3529155254364014,0.9975478649139404,,,,,,,
4635896000.0,72.75,-0.03999999910593033,12041169408.0,1783.345644601835,133.0,0.0017951204208657146,548864.0,1267.3444180488586,6.961445309094927e-15,0.0,2.4809350967407227,-0.02480934001505375,0.012344252318143845,-0.024809351190924644,1.1175870895385742e-08,0.0,-0.0008404906839132309,0.15714269876480103,0.9071612922888344,0.07041817903518677,0.524045467376709,0.06957767903804779,0.5157386064529419,2.296806573867798,0.9973375797271729,,,,,,,
4635896000.0,72.18,0.05000000074505806,12041169408.0,1770.4776867615697,134.0,-0.003294026479125023,552960.0,1269.6579179763794,8.590350653037149e-15,0.0,2.376262664794922,-0.023762617260217667,0.03526429086923599,-0.023762626573443413,1.0244548320770264e-08,0.0,-0.022135509178042412,0.2646803855895996,0.904768325191123,-0.10159355401992798,0.7822372317314148,-0.12372907251119614,0.8576912879943848,2.313499927520752,0.9975464344024658,,,,,,,
4635896000.0,71.4,-0.5,12041169408.0,1744.4121457905076,135.0,-0.00494738295674324,557056.0,1272.0059869289398,8.921682836948719e-15,0.0,2.3641724586486816,-0.02364172413945198,0.029454000294208527,-0.02364172413945198,0.0,0.0,-0.027209367603063583,0.24120914936065674,0.9334488021914106,-0.1986357718706131,0.8787325620651245,-0.22584515810012817,0.9350090622901917,2.348068952560425,0.9973545074462891,,,,,,,
4635896000.0,73.25,-0.75,12041169408.0,1750.6821327057733,136.0,-0.008247040212154388,561152.0,1274.3456463813782,8.828007769245971e-15,0.0,2.3698208332061768,-0.023698216304183006,0.0518038347363472,-0.02369820699095726,-9.313225746154785e-09,0.0,-0.03238431736826897,0.3202873170375824,0.8716768229242219,-0.10500618815422058,0.8373855948448181,-0.13739049434661865,0.8941022753715515,2.3396594524383545,0.9975113868713379,,,,,,,
4635896000.0,73.05,-0.550000011920929,12041169408.0,1741.5181373196494,137.0,-0.0033028596080839634,565248.0,1276.6976172924042,8.482797797526587e-15,0.0,2.3886923789978027,-0.023886920884251595,0.042390890419483185,-0.023886922746896744,1.862645149230957e-09,0.0,0.004816770553588867,0.29116880893707275,0.8661207030280443,-0.04519610106945038,0.7398253083229065,-0.04037933424115181,0.795771062374115,2.351970911026001,0.9976112842559814,,,,,,,
4635896000.0,76.3,-0.4300000071525574,12041169408.0,1763.9793278119744,138.0,-0.003156046150252223,569344.0,1279.019639968872,8.35095881335235e-15,0.0,2.4595675468444824,-0.024595679715275764,0.03420085087418556,-0.024595674127340317,-6.05359673500061e-09,0.0,-0.010527191683650017,0.2613571286201477,0.8978896333004627,-0.04530929774045944,0.7836059927940369,-0.05583649128675461,0.8178986310958862,2.3220226764678955,0.9977340698242188,,,,,,,
4635896000.0,76.57,-0.6399999856948853,12041169408.0,1740.9172356780093,139.0,-0.006465291138738394,573440.0,1281.37242269516,8.954642582992278e-15,0.0,2.42124605178833,-0.02421245537698269,0.06893104314804077,-0.024212459102272987,3.725290298461914e-09,0.0,0.011264394968748093,0.3711722493171692,0.8553962940574193,-0.23005609214305878,0.9549806714057922,-0.21879169344902039,0.9760807752609253,2.352782726287842,0.9975817203521729,,,,,,,
4635896000.0,76.42,-0.4300000071525574,12041169408.0,1805.2021935370117,140.0,-0.0006017640698701143,577536.0,1283.6414206027985,8.304121279500976e-15,0.0,2.4864134788513184,-0.024864129722118378,0.05314040929079056,-0.024864133447408676,2.7939677238464355e-09,0.0,0.02959604188799858,0.32470086216926575,0.883810006928477,-0.1491449475288391,0.9122970700263977,-0.11954890936613083,0.9525747299194336,2.26899790763855,0.9977190494537354,,,,,,,
4635896000.0,77.02,0.029999999329447746,12041169408.0,1769.9974072122277,141.0,-0.0006022395100444555,581632.0,1285.955548286438,7.549516567451064e-15,0.0,2.5097317695617676,-0.0250973179936409,0.06443998217582703,-0.0250973179936409,9.313225746154785e-10,0.0,0.03632308915257454,0.35719987750053406,0.8322482467254086,-0.15556183457374573,0.8683258891105652,-0.11923876404762268,0.8721230030059814,2.3141276836395264,0.99759840965271,,,,,,,
4635896000.0,74.09,-0.05000000074505806,12041169408.0,1723.8246505791865,142.0,0.0004519218346104026,585728.0,1288.3316600322723,7.301451110386381e-15,0.0,2.5177783966064453,-0.025177787989377975,0.04764486849308014,-0.025177784264087677,-4.6566128730773926e-09,0.0,0.0003578320611268282,0.30872783064842224,0.8697296506168831,-0.009889784269034863,0.8017343282699585,-0.009531954303383827,0.8553679585456848,2.3761117458343506,0.9974625110626221,,,,,,,
4635896000.0,74.11,-0.03999999910593033,12041169408.0,1747.7370736412283,143.0,-0.0027148928493261337,589824.0,1290.6752619743347,6.815728537112875e-15,0.0,2.556476593017578,-0.02556476928293705,0.07435543835163116,-0.02556476555764675,-3.725290298461914e-09,0.0,-0.026384392753243446,0.3847738206386566,0.8136332489001203,-0.10373584926128387,0.87166827917099,-0.13012023270130157,0.8912947177886963,2.343601942062378,0.9971137046813965,,,,,,,
4635896000.0,75.64,-0.20999999344348907,12041169408.0,1779.4828195218831,144.0,0.0010564938420429826,593920.0,1292.9770543575287,7.40553451894499e-15,0.0,2.541447162628174,-0.025414464995265007,0.10044202208518982,-0.025414470583200455,5.587935447692871e-09,0.0,0.015670128166675568,0.447981595993042,0.6211591927550261,-0.0145106241106987,0.6328914761543274,0.0011595003306865692,0.7278329730033875,2.3017923831939697,0.9973304271697998,,,,,,,
4635896000.0,77.17,-0.15000000596046448,12041169408.0,1800.309301780664,145.0,-0.0015107339713722467,598016.0,1295.2522189617157,6.565928356572215e-15,0.0,2.566352128982544,-0.025663526728749275,0.055578917264938354,-0.025663521140813828,-5.587935447692871e-09,0.0,-0.030722010880708694,0.3320254683494568,0.7949293673863121,-0.02774341031908989,0.6535414457321167,-0.058465417474508286,0.7331952452659607,2.2751646041870117,0.9976053237915039,,,,,,,
4635896000.0,79.24,-0.25999999046325684,12041169408.0,1781.5122607448666,146.0,-0.005139627028256655,602112.0,1297.5513892173767,6.755013215453687e-15,0.0,2.5414328575134277,-0.025414321571588516,0.06865887343883514,-0.025414327159523964,5.587935447692871e-09,0.0,-0.03537684679031372,0.3689166009426117,0.8222549324102113,-0.1706068068742752,0.7362709045410156,-0.20598363876342773,0.8750430345535278,2.2991702556610107,0.997445821762085,,,,,,,
4635896000.0,78.76,-0.4000000059604645,12041169408.0,1730.3253493687437,147.0,-0.0031751259230077267,606208.0,1299.9185740947723,7.12277459236077e-15,0.0,2.5574913024902344,-0.025574907660484314,0.06982260942459106,-0.02557491324841976,4.6566128730773926e-09,0.0,-0.00901007279753685,0.37362831830978394,0.8054442012208293,-0.11681565642356873,0.737189531326294,-0.12582573294639587,0.8470668792724609,2.36718487739563,0.9974765777587891,,,,,,,
4635896000.0,75.63,-0.46000000834465027,12041169408.0,1785.584505249014,148.0,-0.0028735357336699963,610304.0,1302.2125008106232,7.898195986122403e-15,0.0,2.50958514213562,-0.025095857679843903,0.08231504261493683,-0.025095850229263306,-7.450580596923828e-09,0.0,-0.012706892564892769,0.4055968225002289,0.750436627437891,-0.14306595921516418,0.6625153422355652,-0.155772864818573,0.8119029998779297,2.29392671585083,0.9976208209991455,,,,,,,
4635896000.0,74.51,-0.2199999988079071,12041169408.0,1734.286260966441,149.0,-0.0007572810864076018,614400.0,1304.574279308319,7.781969513231957e-15,0.0,2.497114419937134,-0.024971138685941696,0.06186295300722122,-0.024971144273877144,4.6566128730773926e-09,0.0,-0.009863088838756084,0.35165154933929443,0.8020518515419779,-0.13187909126281738,0.6677387356758118,-0.14174218475818634,0.7903816103935242,2.361778497695923,0.9977517127990723,,,,,,,
4635896000.0,74.57,-0.11999999731779099,12041169408.0,1752.5197952086478,150.0,0.0012131071416661143,618496.0,1306.9114854335785,8.729128531115293e-15,0.0,2.4442641735076904,-0.024442633613944054,0.04322187229990959,-0.02444264106452465,7.450580596923828e-09,0.0,0.035315610468387604,0.29192012548446655,0.8564590452823355,-0.16044484078884125,0.7079851031303406,-0.12512922286987305,0.7705061435699463,2.3372061252593994,0.9973690509796143,,,,,,,
4635896000.0,79.05,-0.07999999821186066,12041169408.0,1725.7252429619657,151.0,-0.0030354985501617193,622592.0,1309.2849802970886,7.979727989493313e-15,0.0,2.4813849925994873,-0.024813847616314888,0.047530755400657654,-0.024813849478960037,1.862645149230957e-09,0.0,-0.028270747512578964,0.307059109210968,0.8438975189387644,-0.055403776466846466,0.6707143783569336,-0.08367452025413513,0.7771719098091125,2.373494863510132,0.9976980686187744,,,,,,,
4635896000.0,77.73,-0.14000000059604645,12041169408.0,1797.1063213016253,152.0,-0.00045595638221129775,626688.0,1311.564199924469,8.48626724447854e-15,0.0,2.442500591278076,-0.024425005540251732,0.030287139117717743,-0.024425005540251732,0.0,0.0,0.029002472758293152,0.2444334775209427,0.9110268976182739,-0.19176873564720154,0.753490149974823,-0.16276627779006958,0.8194667100906372,2.279219627380371,0.997657060623169,,,,,,,
4635896000.0,73.88,-0.009999999776482582,12041169408.0,1761.3261086289233,153.0,-0.0007608431624248624,630784.0,1313.889720439911,9.483733243165204e-15,0.0,2.4289135932922363,-0.024289142340421677,0.022051725536584854,-0.02428913488984108,-7.450580596923828e-09,0.0,0.03286975622177124,0.20744524896144867,0.9365694040457839,-0.13987503945827484,0.7762635350227356,-0.1070052832365036,0.8236716985702515,2.3255205154418945,0.9974696636199951,,,,,,,
4635896000.0,73.0,-0.09000000357627869,12041169408.0,1779.4835567941832,154.0,-0.0018274406902492046,634880.0,1316.1915118694305,8.756884106730922e-15,0.0,2.416823625564575,-0.024168243631720543,0.040382206439971924,-0.024168236181139946,-7.450580596923828e-09,0.0,0.040532514452934265,0.28131982684135437,0.8811877672419002,-0.12879323959350586,0.7798805236816406,-0.088260717689991,0.8161495923995972,2.3017914295196533,0.9975996017456055,,,,,,,
4635896000.0,70.73,-0.25,12041169408.0,1744.101524943126,155.0,-0.00183021929115057,638976.0,1318.5399990081787,9.665879208142769e-15,0.0,2.426223039627075,-0.02426222898066044,0.031240813434123993,-0.02426222898066044,0.0,0.0,0.0022017727605998516,0.24998405575752258,0.9088320227257748,-0.16694089770317078,0.790632426738739,-0.16473913192749023,0.8279253840446472,2.348487138748169,0.9974150657653809,,,,,,,
4635896000.0,71.68,-0.1899999976158142,12041169408.0,1811.434284554453,156.0,-0.0021373522467911243,643072.0,1320.8011906147003,9.853229343548264e-15,0.0,2.402804374694824,-0.02402803674340248,0.036210253834724426,-0.02402804233133793,5.587935447692871e-09,0.0,0.0113499965518713,0.2689039409160614,0.8771153466370584,-0.15407247841358185,0.7287290692329407,-0.142722487449646,0.7670935988426208,2.2611916065216064,0.9975180625915527,,,,,,,
4635896000.0,71.45,-0.1599999964237213,12041169408.0,1725.298734436542,157.0,-0.00045859243255108595,647168.0,1323.1752722263336,9.442099879741761e-15,0.0,2.4183006286621094,-0.0241830013692379,0.059511955827474594,-0.024183005094528198,3.725290298461914e-09,0.0,0.040462348610162735,0.34265926480293274,0.811958276791291,-0.15871670842170715,0.7819889783859253,-0.11825434863567352,0.7901970148086548,2.374081611633301,0.9973747730255127,,,,,,,
4635896000.0,72.31,0.23000000417232513,12041169408.0,1734.204505251308,158.0,0.0019888298120349646,651264.0,1325.537162065506,8.694434061595757e-15,0.0,2.5038082599639893,-0.025038080289959908,0.05295487120747566,-0.025038082152605057,1.862645149230957e-09,0.0,0.01702510006725788,0.3250318169593811,0.7523090692523644,0.033165812492370605,0.604093611240387,0.05019091069698334,0.6530867218971252,2.3618898391723633,0.9976413249969482,,,,,,,
4635896000.0,76.88,0.3400000035762787,12041169408.0,1760.3946494661752,159.0,0.004137111362069845,655360.0,1327.8639130592346,7.846154281843098e-15,0.0,2.5001237392425537,-0.02500123716890812,0.029230955988168716,-0.02500123716890812,0.0,0.0,-0.003416025545448065,0.2417943775653839,0.8894443041927622,0.09125468134880066,0.6644606590270996,0.08783865720033646,0.7272028923034668,2.3267509937286377,0.9975872039794922,,,,,,,
,,,,,,,,,,,,,,,,,,,,,,,,,,0.004126553423702717,0.05535878613591194,0.05065653473138809,0.004126553423702717,0.05535878613591194,0.05065653473138809,
,,,,,,,,,,,,,,,,,,,,,,,,,,0.002878904342651367,0.04554823413491249,0.04585766792297363,0.002878904342651367,0.04554823413491249,0.04585766792297363,
,,,,,,,,,,,,,,,,,,,,,,,,,,0.0030617627780884504,0.043916378170251846,0.04500413313508034,0.0030617627780884504,0.043916378170251846,0.04500413313508034,
,,,,,,,,,,,,,,,,,,,,,,,,,,0.0027096858248114586,0.04132380709052086,0.04160614311695099,0.0027096858248114586,0.04132380709052086,0.04160614311695099,
,,,,,,,,,,,,,,,,,,,,,,,,,,0.002368007320910692,0.03942548856139183,0.03947353735566139,0.002368007320910692,0.03942548856139183,0.03947353735566139,
,,,,,,,,,,,,,,,,,,,,,,,,,,0.002493364503607154,0.03797904774546623,0.03832770138978958,0.002493364503607154,0.03797904774546623,0.03832770138978958,
,,,,,,,,,,,,,,,,,,,,,,,,,,,,,,,,-0.84
4635896000.0,76.54,0.23000000417232513,11990521856.0,17.003021354002765,160.0,0.0023004161193966866,659456.0,1568.7622754573822,8.484532521002563e-15,0.0,2.483344078063965,-0.02483344078063965,0.05074603483080864,-0.02483344078063965,0.0,0.0,0.0166292916983366,0.31818270683288574,0.8567882056589018,-0.05747615545988083,0.7655786275863647,-0.04084686189889908,0.8407893776893616,240.89836239814758,0.9971542358398438,,,,,,,
4635896000.0,79.3,-0.14000000059604645,12041169408.0,1768.877889043355,161.0,-0.006746632046997547,663552.0,1571.0778677463531,8.710046572879548e-15,0.0,2.494492292404175,-0.024944936856627464,0.09294117987155914,-0.02494492195546627,-1.4901161193847656e-08,0.0,-0.030046693980693817,0.4301450252532959,0.7940943634010919,-0.23221904039382935,0.8290113210678101,-0.26226571202278137,0.9479398727416992,2.3155922889709473,0.9976162910461426,,,,,,,
4635896000.0,79.55,-0.3499999940395355,12041169408.0,1766.4015108502913,162.0,0.0003070676466450095,667648.0,1573.3967063426971,8.324937961212697e-15,0.0,2.5337119102478027,-0.025337114930152893,0.0686095654964447,-0.02533711865544319,3.725290298461914e-09,0.0,0.04840759187936783,0.36729925870895386,0.7681673749421821,-0.08619034290313721,0.7731730937957764,-0.03778274729847908,0.7628388404846191,2.318838596343994,0.9975788593292236,,,,,,,
4635896000.0,76.75,0.029999999329447746,12041169408.0,1722.2589818043657,163.0,0.001537033123895526,671744.0,1575.7749781608582,8.042178034628478e-15,0.0,2.5303332805633545,-0.025303322821855545,0.07697442919015884,-0.02530333213508129,9.313225746154785e-09,0.0,0.0029496564529836178,0.39239996671676636,0.708716198762763,0.014435933902859688,0.6691829562187195,0.017385592684149742,0.7270609140396118,2.3782718181610107,0.997065544128418,,,,,,,
4635896000.0,74.83,0.1899999976158142,12041169408.0,1741.6724444741371,164.0,-0.0006152533460408449,675840.0,1578.126740694046,7.99707522425308e-15,0.0,2.5628209114074707,-0.025628212839365005,0.09531072527170181,-0.025628209114074707,-3.725290298461914e-09,0.0,-0.008151172660291195,0.4365793466567993,0.7216149003715497,0.011111665517091751,0.7702006697654724,0.00296049565076828,0.8274469971656799,2.351762533187866,0.997399091720581,,,,,,,
4635896000.0,75.06,-0.019999999552965164,12041169408.0,1778.7388546097693,165.0,-0.0009235723409801722,679936.0,1580.4294958114624,8.23646706393788e-15,0.0,2.501176595687866,-0.025011761114001274,0.07649202644824982,-0.025011764839291573,3.725290298461914e-09,0.0,-0.043731629848480225,0.38872677087783813,0.7860567921593249,-0.03617171570658684,0.7726592421531677,-0.07990334928035736,0.8404176831245422,2.302755117416382,0.9973647594451904,,,,,,,
4635896000.0,76.9,-0.019999999552965164,12041169408.0,1801.479928498109,166.0,0.0012336011277511716,684032.0,1582.7031819820404,7.957176584305614e-15,0.0,2.535695791244507,-0.02535696141421795,0.06261235475540161,-0.02535695768892765,-3.725290298461914e-09,0.0,0.012445127591490746,0.3536953032016754,0.6489144375256488,0.01135165710002184,0.6166531443595886,0.02379678376019001,0.5969291925430298,2.273686170578003,0.9975171089172363,,,,,,,
4635896000.0,76.0,-0.03999999910593033,12041169408.0,1788.3569770915765,167.0,-0.002006207825616002,688128.0,1584.9935524463654,8.456776945386935e-15,0.0,2.5168662071228027,-0.025168661028146744,0.08371500670909882,-0.025168661028146744,0.0,0.0,-0.028364967554807663,0.40824761986732483,0.7041596726304753,0.012000909075140953,0.6786416172981262,-0.01636406034231186,0.7505766153335571,2.290370464324951,0.9975295066833496,,,,,,,
4635896000.0,75.33,-0.05999999865889549,12041169408.0,1811.2582029377397,168.0,0.0013901789207011461,692224.0,1587.254963874817,8.867906409193438e-15,0.0,2.5002734661102295,-0.0250027384608984,0.055339567363262177,-0.0250027347356081,-3.725290298461914e-09,0.0,0.009685765020549297,0.33258432149887085,0.8093741720608624,-0.043485671281814575,0.6720268130302429,-0.033799901604652405,0.7617473006248474,2.261411428451538,0.9977667331695557,,,,,,,
4635896000.0,73.54,0.27000001072883606,12041169408.0,1721.4973958896983,169.0,0.0020095270592719316,696320.0,1589.6342878341675,8.824538322294018e-15,0.0,2.505857467651367,-0.025058578699827194,0.055602140724658966,-0.025058574974536896,-3.725290298461914e-09,0.0,-0.004655841272324324,0.3334812521934509,0.7446779179812864,0.05782228708267212,0.5400550365447998,0.05316644906997681,0.6599746346473694,2.379323959350586,0.9974603652954102,,,,,,,
4635896000.0,72.31,0.10000000149011612,12041169408.0,1730.0606657743058,170.0,0.0003095562569797039,700416.0,1592.0018348693848,8.880049473525276e-15,0.0,2.4865212440490723,-0.02486521005630493,0.05353713780641556,-0.02486521191895008,9.313225746154785e-10,0.0,0.005902338773012161,0.3272087574005127,0.801839395286151,-0.05463629588484764,0.6221652626991272,-0.04873394966125488,0.7350490093231201,2.367547035217285,0.9975152015686035,,,,,,,
4635896000.0,75.1,-0.009999999776482582,12041169408.0,1746.6203131659167,171.0,-0.00216957600787282,704512.0,1594.3469352722168,8.867906409193438e-15,0.0,2.4632997512817383,-0.024633001536130905,0.051875170320272446,-0.024632997810840607,-3.725290298461914e-09,0.0,-0.015249490737915039,0.32178106904029846,0.7665680478137109,-0.020766839385032654,0.5446261763572693,-0.03601633012294769,0.6660094261169434,2.3451004028320312,0.9976191520690918,,,,,,,
4635896000.0,76.95,0.18000000715255737,12041169408.0,1753.493585359299,172.0,0.005735286511480808,708608.0,1596.6828434467316,9.497611030973019e-15,0.0,2.462985038757324,-0.024629857391119003,0.07260029017925262,-0.024629849940538406,-7.450580596923828e-09,0.0,0.04382295906543732,0.3785698115825653,0.7647896029343472,0.06761981546878815,0.6334445476531982,0.11144278198480606,0.7805805802345276,2.3359081745147705,0.9978647232055664,,,,,,,
4635896000.0,73.33,0.12999999523162842,12041169408.0,1792.3323255647272,173.0,-0.0006202366203069687,712704.0,1598.9681339263916,1.0319869958586025e-14,0.0,2.4432318210601807,-0.024432320147752762,0.07202500849962234,-0.024432318285107613,-2.7939677238464355e-09,0.0,-0.03960660845041275,0.3775130808353424,0.7999468133411385,0.06482185423374176,0.6650884747505188,0.02521524392068386,0.8440327644348145,2.285290479660034,0.9976396560668945,,,,,,,
4635896000.0,74.25,0.3400000035762787,12041169408.0,1770.6112555254726,174.0,0.004654266405850649,716800.0,1601.2814593315125,9.889658536543777e-15,0.0,2.4301412105560303,-0.02430141717195511,0.057475656270980835,-0.02430141158401966,-5.587935447692871e-09,0.0,0.0053827958181500435,0.33904334902763367,0.7936309984353772,0.11215590685606003,0.6289700865745544,0.1175386980175972,0.746333658695221,2.3133254051208496,0.997438907623291,,,,,,,
4635896000.0,79.04,0.5799999833106995,12041169408.0,1693.693426733646,175.0,0.002330377232283354,720896.0,1603.6998426914215,9.750880658465633e-15,0.0,2.4510254859924316,-0.024510249495506287,0.08425980806350708,-0.024510255083441734,6.51925802230835e-09,0.0,0.00454758619889617,0.4105363190174103,0.6606836459351124,0.08675112575292587,0.597484290599823,0.09129871428012848,0.70477294921875,2.4183833599090576,0.9974498748779297,,,,,,,
4635896000.0,75.38,0.2800000011920929,12041169408.0,1769.8803409610812,176.0,0.002332529053092003,724992.0,1606.0141234397888,9.235667786100521e-15,0.0,2.5049614906311035,-0.025049611926078796,0.07653336226940155,-0.025049613788723946,2.7939677238464355e-09,0.0,-0.008679010905325413,0.3911888897418976,0.6973797383451925,0.06810595095157623,0.6318368315696716,0.059426937252283096,0.7111111879348755,2.3142807483673096,0.9975564479827881,,,,,,,
4635896000.0,74.57,0.17000000178813934,12041169408.0,1752.2561422247172,177.0,0.0028029964305460453,729088.0,1608.3516812324524,1.0181092080507881e-14,0.0,2.4794373512268066,-0.02479437179863453,0.0509587898850441,-0.02479437366127968,1.862645149230957e-09,0.0,-0.02118304744362831,0.31858065724372864,0.7416868099725876,0.1526699960231781,0.5705355405807495,0.13148696720600128,0.6268247365951538,2.337557792663574,0.9975039958953857,,,,,,,
4635896000.0,76.5,0.25999999046325684,12041169408.0,1764.3276909334434,178.0,0.0031173343304544687,733184.0,1610.6732454299927,1.0777836956243902e-14,0.0,2.4526572227478027,-0.02452656999230385,0.05637519061565399,-0.024526571854948997,1.862645149230957e-09,0.0,-0.009057285264134407,0.3357020616531372,0.8228134458848034,0.020774221047759056,0.6754095554351807,0.011716935783624649,0.7975144982337952,2.321564197540283,0.9998409748077393,,,,,,,
4635896000.0,76.05,0.5099999904632568,12041169408.0,1751.0525693834384,179.0,0.0035880613140761852,737280.0,1613.0124099254608,1.0474260347947961e-14,0.0,2.467088222503662,-0.024670874699950218,0.0565459281206131,-0.024670882150530815,7.450580596923828e-09,0.0,0.01842891424894333,0.3358269929885864,0.7818945139560768,0.11845532059669495,0.6004482507705688,0.13688422739505768,0.7190884947776794,2.3391644954681396,0.9980151653289795,,,,,,,
4635896000.0,75.34,0.33000001311302185,12041169408.0,1780.418725338992,180.0,0.0035896149929612875,741376.0,1615.3129923343658,1.1234069230425803e-14,0.0,2.464906930923462,-0.024649064987897873,0.089419424533844,-0.02464906871318817,4.6566128730773926e-09,0.0,-0.03818497806787491,0.4212173819541931,0.6566361048640909,0.18551503121852875,0.5279809832572937,0.14733004570007324,0.718834638595581,2.3005824089050293,0.9977114200592041,,,,,,,
4635896000.0,73.43,0.25,12041169408.0,1753.3489867698709,181.0,0.0034360019490122795,745472.0,1617.6490931510925,9.83935155574045e-15,0.0,2.477205753326416,-0.024772057309746742,0.09414368867874146,-0.024772057309746742,0.0,0.0,0.01509954035282135,0.43371108174324036,0.5671992107973365,0.07542292773723602,0.6166080236434937,0.09052246063947678,0.6592596173286438,2.3361008167266846,0.9979760646820068,,,,,,,
4635896000.0,74.49,0.3799999952316284,12041169408.0,1767.6210092925305,182.0,0.0026563326828181744,749568.0,1619.9663319587708,1.0613038226026106e-14,0.0,2.5027730464935303,-0.02502773143351078,0.10585258901119232,-0.02502772957086563,-1.862645149230957e-09,0.0,-0.013740407302975655,0.45996519923210144,0.6384945232232861,0.13260430097579956,0.6648088097572327,0.11886388808488846,0.7650108337402344,2.3172388076782227,0.9977900981903076,,,,,,,
4635896000.0,77.61,0.15000000596046448,12041169408.0,1692.3583512363816,183.0,-0.0012491489760577679,753664.0,1622.3866231441498,1.1889794704345036e-14,0.0,2.51788330078125,-0.02517884597182274,0.13948383927345276,-0.025178832933306694,-1.3969838619232178e-08,0.0,-0.055630628019571304,0.525300145149231,0.6438246548609402,0.13742101192474365,0.6979828476905823,0.08179038763046265,0.8801882863044739,2.4202911853790283,0.9979922771453857,,,,,,,
4635896000.0,82.34,-0.05999999865889549,12041169408.0,1711.3114347553064,184.0,-0.0003122924827039242,757760.0,1624.780109167099,1.1190701143526383e-14,0.0,2.52842116355896,-0.025284208357334137,0.12800233066082,-0.025284210219979286,1.862645149230957e-09,0.0,-0.035611823201179504,0.5047758221626282,0.6282169527817532,0.10159603506326675,0.7416975498199463,0.06598420441150665,0.8278540372848511,2.3934860229492188,0.9977884292602539,,,,,,,
4635896000.0,76.91,0.05999999865889549,12041169408.0,1683.7391587884945,185.0,-3.4924596548080444e-10,761856.0,1627.2127900123596,1.2155207396169487e-14,0.0,2.509925365447998,-0.02509925700724125,0.1274062693119049,-0.02509925328195095,-3.725290298461914e-09,0.0,-0.06247234344482422,0.5009701251983643,0.4880592471550693,0.22048091888427734,0.4806317389011383,0.15800859034061432,0.7001674771308899,2.43268084526062,0.99776291847229,,,,,,,
4635896000.0,78.06,0.14000000059604645,12041169408.0,1776.1371146939453,186.0,0.0039028897881507874,765952.0,1629.5189182758331,1.1147333056626962e-14,0.0,2.549311637878418,-0.02549312263727188,0.11226028203964233,-0.025493115186691284,-7.450580596923828e-09,0.0,-0.010140771046280861,0.4737853407859802,0.392305929489426,0.22551631927490234,0.43538540601730347,0.21537557244300842,0.6077698469161987,2.3061282634735107,0.9978713989257812,,,,,,,
4635896000.0,82.15,0.28999999165534973,12041169408.0,1749.4340450196553,187.0,0.00031240249518305063,770048.0,1631.8602468967438,1.186550857568136e-14,0.0,2.4935123920440674,-0.024935126304626465,0.09282388538122177,-0.024935122579336166,-3.725290298461914e-09,0.0,-0.04726140946149826,0.42832106351852417,0.5499736600577139,0.15901580452919006,0.43829718232154846,0.1117543950676918,0.6384845972061157,2.3413286209106445,0.9974970817565918,,,,,,,
4635896000.0,80.41,0.3199999928474426,12041169408.0,1752.235053412978,188.0,0.006719682831317186,774144.0,1634.1978328227997,1.2337353361147052e-14,0.0,2.5192627906799316,-0.025192631408572197,0.06999688595533371,-0.0251926276832819,-3.725290298461914e-09,0.0,0.01986919343471527,0.37367507815361023,0.5876698606464714,0.21824976801872253,0.4893909990787506,0.238118976354599,0.5819311738014221,2.337585926055908,0.9974260330200195,,,,,,,
4635896000.0,78.1,0.6399999856948853,12041169408.0,1790.0927493918796,189.0,0.00516014127060771,778240.0,1636.4859824180603,1.205632815803881e-14,0.0,2.4857192039489746,-0.024857185781002045,0.062274739146232605,-0.024857191368937492,4.6566128730773926e-09,0.0,0.022751860320568085,0.3522244989871979,0.6984891304063039,0.1183493435382843,0.4895266890525818,0.14110121130943298,0.6414578557014465,2.28814959526062,0.9979007244110107,,,,,,,
4635896000.0,76.31,0.699999988079071,12041169408.0,1735.18240249044,190.0,0.005787787027657032,782336.0,1638.8465411663055,1.2333883914195098e-14,0.0,2.4478986263275146,-0.024478984996676445,0.0798819437623024,-0.024478984996676445,0.0,0.0,0.012509568594396114,0.3995577394962311,0.6475696873172856,0.1001751646399498,0.42353129386901855,0.11268472671508789,0.6730431318283081,2.3605587482452393,0.9985024929046631,,,,,,,
4635896000.0,77.1,0.49000000953674316,12041169408.0,1760.126277625254,191.0,0.003600140567868948,786432.0,1641.1736469268799,1.2552459072168176e-14,0.0,2.4406516551971436,-0.024406513199210167,0.07495508342981339,-0.024406516924500465,3.725290298461914e-09,0.0,-0.031131353229284286,0.3859758973121643,0.6484265706668788,0.1190125048160553,0.49048182368278503,0.0878811627626419,0.6509567499160767,2.327105760574341,0.9976317882537842,,,,,,,
,,,,,,,,,,,,,,,,,,,,,,,,,,0.012319060042500496,0.0911136046051979,0.08618584275245667,0.012319060042500496,0.0911136046051979,0.08618584275245667,
,,,,,,,,,,,,,,,,,,,,,,,,,,0.00886128842830658,0.0761595293879509,0.07790619879961014,0.00886128842830658,0.0761595293879509,0.07790619879961014,
,,,,,,,,,,,,,,,,,,,,,,,,,,0.006750893779098988,0.06957526504993439,0.07189340889453888,0.006750893779098988,0.06957526504993439,0.07189340889453888,
,,,,,,,,,,,,,,,,,,,,,,,,,,0.005887425504624844,0.0662815049290657,0.06799577176570892,0.005887425504624844,0.0662815049290657,0.06799577176570892,
,,,,,,,,,,,,,,,,,,,,,,,,,,0.006673446390777826,0.06404787302017212,0.06618655472993851,0.006673446390777826,0.06404787302017212,0.06618655472993851,
,,,,,,,,,,,,,,,,,,,,,,,,,,0.005407856311649084,0.060630057007074356,0.06209633871912956,0.005407856311649084,0.060630057007074356,0.06209633871912956,
,,,,,,,,,,,,,,,,,,,,,,,,,,,,,,,,-0.11
4635912000.0,77.67,0.5099999904632568,11990521856.0,16.99972259665188,192.0,0.0048568956553936005,790528.0,1882.1187551021576,1.1537645838721744e-14,0.0,2.3948986530303955,-0.023948978632688522,0.06679025292396545,-0.02394898608326912,7.450580596923828e-09,0.0,0.07115979492664337,0.35853615403175354,0.7803868638079167,-0.016499178484082222,0.7490206956863403,0.054660614579916,0.765074610710144,240.9451081752777,0.9976315498352051,,,,,,,
4635912000.0,78.96,0.6800000071525574,12041169408.0,1818.4406724979287,193.0,0.004074531141668558,794624.0,1884.3712344169617,1.2091022627558345e-14,0.0,2.35372257232666,-0.02353723719716072,0.0753859430551529,-0.023537226021289825,-1.1175870895385742e-08,0.0,0.03112684190273285,0.38709118962287903,0.7110632236011123,0.046729736030101776,0.7325435280799866,0.07785657793283463,0.7201316356658936,2.252479314804077,0.9972684383392334,,,,,,,
4635912000.0,77.45,0.5299999713897705,12041169408.0,1778.0416992246728,194.0,0.0040788352489471436,798720.0,1886.674892425537,1.0618242396454036e-14,0.0,2.3801655769348145,-0.023801660165190697,0.05040014535188675,-0.02380165457725525,-5.587935447692871e-09,0.0,-0.025627972558140755,0.3164932131767273,0.8363704733674429,0.08939702808856964,0.7221831679344177,0.06376905739307404,0.7824084758758545,2.3036580085754395,0.9973361492156982,,,,,,,
4635912000.0,75.84,0.2800000011920929,12041169408.0,1817.6622446776105,195.0,0.0012558926828205585,802816.0,1888.9283363819122,1.2758891165809416e-14,0.0,2.2982177734375,-0.022982170805335045,0.09931632876396179,-0.022982176393270493,5.587935447692871e-09,0.0,-0.011133714579045773,0.4455975294113159,0.6266374135876791,0.07092985510826111,0.7012187838554382,0.05979613587260246,0.7292516231536865,2.253443956375122,0.9972178936004639,,,,,,,
4635912000.0,74.34,0.20999999344348907,12041169408.0,1697.2599795299798,196.0,0.0020428053103387356,806912.0,1891.3416378498077,1.1919285003436642e-14,0.0,2.338470458984375,-0.023384712636470795,0.05047254636883736,-0.02338470332324505,-8.381903171539307e-09,0.0,-0.0029035289771854877,0.31774407625198364,0.8098494668864961,0.05234174430370331,0.6829637885093689,0.049438223242759705,0.728666365146637,2.413301467895508,0.9975113868713379,,,,,,,
4635912000.0,73.07,0.4000000059604645,12041169408.0,1749.152442035976,197.0,0.004090756177902222,811008.0,1893.683343410492,1.1851630787873546e-14,0.0,2.3936712741851807,-0.023936713114380836,0.05787166208028793,-0.023936713114380836,0.0,0.0,0.049214158207178116,0.3366733491420746,0.7418760493434038,0.07475332170724869,0.6103726029396057,0.1239674836397171,0.6626659035682678,2.341705560684204,0.9973709583282471,,,,,,,
4635912000.0,77.84,0.5699999928474426,12041169408.0,1732.7625310548106,198.0,0.005667967721819878,815104.0,1896.0471987724304,1.1988673942475714e-14,0.0,2.4528660774230957,-0.024528658017516136,0.04591796174645424,-0.024528659880161285,1.862645149230957e-09,0.0,0.029163140803575516,0.3016747236251831,0.8112253742739781,0.16742150485515594,0.5956719517707825,0.19658464193344116,0.6943318843841553,2.3638553619384766,0.997413158416748,,,,,,,
4635912000.0,79.82,0.6600000262260437,12041169408.0,1697.4092263489715,199.0,0.007250296417623758,819200.0,1898.4602880477905,1.083855227790309e-14,0.0,2.462916851043701,-0.024629170075058937,0.039743572473526,-0.024629168212413788,-1.862645149230957e-09,0.0,0.04604817181825638,0.2781826853752136,0.7874743152846371,0.2429690957069397,0.536274790763855,0.2890172600746155,0.603426456451416,2.4130892753601074,0.9972813129425049,,,,,,,
4635912000.0,78.69,0.8100000023841858,12041169408.0,1763.9635704865907,200.0,0.005836093798279762,823296.0,1900.7823314666748,1.1917550279960665e-14,0.0,2.4825806617736816,-0.0248258039355278,0.07075464725494385,-0.02482580579817295,2.7939677238464355e-09,0.0,0.007029854226857424,0.3761574327945709,0.7228320182427106,0.1985761523246765,0.5595252513885498,0.20560601353645325,0.7144932746887207,2.3220434188842773,0.9975345134735107,,,,,,,
4635912000.0,78.59,1.0499999523162842,12041169408.0,1777.1592115063143,201.0,0.006627480499446392,827392.0,1903.0871334075928,1.1662545928992074e-14,0.0,2.485222816467285,-0.02485223114490509,0.09170371294021606,-0.024852227419614792,-3.725290298461914e-09,0.0,0.024648072198033333,0.42760324478149414,0.603668138570566,0.22931373119354248,0.5783615708351135,0.2539617717266083,0.6792216897010803,2.3048019409179688,0.9973981380462646,,,,,,,
4635912000.0,81.79,0.550000011920929,12041169408.0,1760.3241217883062,202.0,0.000788918579928577,831488.0,1905.4139776229858,1.1412745748451414e-14,0.0,2.4931702613830566,-0.024931689724326134,0.13248328864574432,-0.02493170276284218,1.257285475730896e-08,0.0,-0.08225733786821365,0.5081961750984192,0.6031296280880019,0.3066646158695221,0.5618908405303955,0.22440728545188904,0.8066906929016113,2.3268442153930664,0.997746467590332,,,,,,,
4635912000.0,80.77,-0.07999999821186066,12041169408.0,1768.9625824496777,203.0,0.001420473214238882,835584.0,1907.7294590473175,1.2037246199803064e-14,0.0,2.4875974655151367,-0.024875978007912636,0.14654865860939026,-0.024875974282622337,-3.725290298461914e-09,0.0,-0.10971139371395111,0.5302163362503052,0.48063920431141327,0.30472269654273987,0.5378000736236572,0.19501131772994995,0.7357301115989685,2.315481424331665,0.9975006580352783,,,,,,,
4635912000.0,77.74,0.3100000023841858,12041169408.0,1764.8041729410315,204.0,0.0033147321082651615,839680.0,1910.0503964424133,1.2222861611732583e-14,0.0,2.4674532413482666,-0.024674536660313606,0.12021409720182419,-0.02467453107237816,-6.05359673500061e-09,0.0,-0.06754432618618011,0.48571962118148804,0.6573231811259312,0.3560974597930908,0.6786900162696838,0.2885531783103943,0.8297423720359802,2.320937395095825,0.9974226951599121,,,,,,,
4635912000.0,79.78,0.44999998807907104,12041169408.0,1781.251632636345,205.0,0.001104966038838029,843776.0,1912.3499031066895,1.1921019726912618e-14,0.0,2.456500291824341,-0.02456500194966793,0.1366908699274063,-0.02456500194966793,0.0,0.0,-0.0526605062186718,0.5202640891075134,0.5252879974462821,0.23342356085777283,0.5295448899269104,0.18076303601264954,0.7551072835922241,2.299506664276123,0.9975769519805908,,,,,,,
4635912000.0,79.34,0.5199999809265137,12041169408.0,1806.2289703880278,206.0,0.008529274724423885,847872.0,1914.617611169815,1.1584483372573118e-14,0.0,2.458181858062744,-0.024581821635365486,0.0882348120212555,-0.024581817910075188,-3.725290298461914e-09,0.0,0.044685982167720795,0.41775038838386536,0.6452427829659442,0.33485960960388184,0.5799718499183655,0.37954556941986084,0.7013764977455139,2.2677080631256104,0.9971494674682617,,,,,,,
4635912000.0,75.58,0.7799999713897705,12041169408.0,1747.7818804506055,207.0,0.005531011149287224,851968.0,1916.9611530303955,1.1463052729254741e-14,0.0,2.472076892852783,-0.024720752611756325,0.09879900515079498,-0.02472076751291752,1.4901161193847656e-08,0.0,-0.013668326660990715,0.444364070892334,0.518384211408961,0.2088121473789215,0.5099784731864929,0.19514381885528564,0.6403074860572815,2.3435418605804443,0.9973156452178955,,,,,,,
4635912000.0,76.46,0.7699999809265137,12041169408.0,1788.2443568126332,208.0,0.005690853577107191,856064.0,1919.2516677379608,1.2607970223399434e-14,0.0,2.410703182220459,-0.024107033386826515,0.11482999473810196,-0.024107031524181366,-1.862645149230957e-09,0.0,-0.017695769667625427,0.47896021604537964,0.568479001387864,0.20289689302444458,0.5510135293006897,0.18520112335681915,0.7291190028190613,2.2905147075653076,0.9976625442504883,,,,,,,
4635912000.0,79.31,0.9300000071525574,12041169408.0,1720.3158820411072,209.0,0.008382115513086319,860160.0,1921.6326258182526,1.152897222134186e-14,0.0,2.4351208209991455,-0.0243512149900198,0.07556048035621643,-0.0243512075394392,-7.450580596923828e-09,0.0,0.025331690907478333,0.3879639208316803,0.6193051287789704,0.20368537306785583,0.5064141750335693,0.22901704907417297,0.6287859678268433,2.380958080291748,0.9971952438354492,,,,,,,
4635912000.0,78.1,1.0700000524520874,12041169408.0,1761.8286139964096,210.0,0.009023837745189667,864256.0,1923.9574830532074,1.132254012770062e-14,0.0,2.4541594982147217,-0.024541610851883888,0.057711370289325714,-0.024541594088077545,-1.6763806343078613e-08,0.0,0.06767025589942932,0.33297228813171387,0.5466480723325458,0.16964083909988403,0.5163570642471313,0.23731112480163574,0.4945273995399475,2.324857234954834,0.9973363876342773,,,,,,,
4635912000.0,82.1,0.7300000190734863,12041169408.0,1708.594433082459,211.0,0.0045929416082799435,868352.0,1926.3547751903534,1.2179493524833163e-14,0.0,2.4059219360351562,-0.024059219285845757,0.06657590717077255,-0.024059219285845757,-4.656612873077393e-10,0.0,-0.007720809429883957,0.3648625612258911,0.6433657043671976,0.16346900165081024,0.49929872155189514,0.155748188495636,0.6109670400619507,2.397292137145996,0.9975502490997314,,,,,,,
4635912000.0,81.42,0.6499999761581421,12041169408.0,1713.7506980494916,212.0,0.0064974213019013405,872448.0,1928.7448544502258,1.3001752452446169e-14,0.0,2.4073660373687744,-0.024073660373687744,0.07764245569705963,-0.024073660373687744,0.0,0.0,0.030725177377462387,0.392910361289978,0.5174539267768863,0.16294223070144653,0.43295398354530334,0.19366741180419922,0.565619170665741,2.3900792598724365,0.9977884292602539,,,,,,,
4635912000.0,83.34,0.9700000286102295,12041169408.0,1732.9093473720905,213.0,0.006661616265773773,876544.0,1931.1085095405579,1.1407541578023483e-14,0.0,2.426604747772217,-0.024266039952635765,0.0463087260723114,-0.024266047403216362,7.450580596923828e-09,0.0,0.019929610192775726,0.3037149906158447,0.6532860906710944,0.2480873465538025,0.42053651809692383,0.2680169641971588,0.5157990455627441,2.3636550903320312,0.9974408149719238,,,,,,,
4635912000.0,85.38,1.100000023841858,12041169408.0,1757.250933252596,214.0,0.008888104930520058,880640.0,1933.439423084259,1.3941972576425599e-14,0.0,2.3420157432556152,-0.023420166224241257,0.03824920207262039,-0.02342015691101551,-1.0244548320770264e-08,0.0,0.039097413420677185,0.2738395631313324,0.7236021636151511,0.2002391517162323,0.5117588043212891,0.23933656513690948,0.5208694338798523,2.330913543701172,0.9976465702056885,,,,,,,
4635912000.0,81.75,1.059999942779541,12041169408.0,1764.91077773882,215.0,0.010006772354245186,884736.0,1935.7602202892303,1.4759027333610675e-14,0.0,2.323131799697876,-0.023231303319334984,0.07560158520936966,-0.023231318220496178,1.4901161193847656e-08,0.0,0.04053565114736557,0.3867771625518799,0.5998711347235804,0.26860666275024414,0.47326016426086426,0.3091422915458679,0.6114498376846313,2.3207972049713135,0.9976761341094971,,,,,,,
4635912000.0,79.72,0.9399999976158142,12041169408.0,1762.5255874907743,216.0,0.0058795674704015255,888832.0,1938.0841581821442,1.5338424974586928e-14,0.0,2.32170033454895,-0.023216992616653442,0.07916133105754852,-0.02321700192987919,9.313225746154785e-09,0.0,0.005332633852958679,0.39791062474250793,0.5790967753141552,0.2667945921421051,0.46505919098854065,0.272127240896225,0.6133303642272949,2.3239378929138184,0.9973046779632568,,,,,,,
4635912000.0,85.21,1.0700000524520874,12041169408.0,1801.5927106878046,217.0,0.008750665001571178,892928.0,1940.3577020168304,1.6629059240713673e-14,0.0,2.291628360748291,-0.022916287183761597,0.05718022584915161,-0.022916283458471298,-3.725290298461914e-09,0.0,0.029533369466662407,0.3369212746620178,0.6526352754238985,0.3765915036201477,0.4962129294872284,0.40612488985061646,0.5716570615768433,2.2735438346862793,0.9976294040679932,,,,,,,
4635912000.0,88.66,1.0800000429153442,12041169408.0,1822.5773417326711,218.0,0.007328659296035767,897024.0,1942.6050689220428,1.787459069646502e-14,0.0,2.2878615856170654,-0.022878602147102356,0.06062072888016701,-0.0228786151856184,1.30385160446167e-08,0.0,0.00042928848415613174,0.3482397198677063,0.5957843871150184,0.39396920800209045,0.5029229521751404,0.3943985104560852,0.5477365851402283,2.2473669052124023,0.9974179267883301,,,,,,,
4635912000.0,83.68,0.9700000286102295,12041169408.0,1764.1285835674998,219.0,0.00860895961523056,901120.0,1944.9268951416016,1.9392473737944727e-14,0.0,2.2554666996002197,-0.022554676979780197,0.08144354075193405,-0.022554665803909302,-1.1175870895385742e-08,0.0,-0.00833938643336296,0.40355581045150757,0.6206877463412935,0.4231356978416443,0.5246216058731079,0.4147963225841522,0.6552472114562988,2.321826219558716,0.9973702430725098,,,,,,,
4635912000.0,83.64,0.7200000286102295,12041169408.0,1785.7131243534147,220.0,0.003187332535162568,905216.0,1947.220656633377,1.8356843822786573e-14,0.0,2.266141414642334,-0.022661413997411728,0.16469493508338928,-0.022661413997411728,0.0,0.0,-0.11094129830598831,0.563169002532959,0.5108020403100848,0.4222019910812378,0.5263434648513794,0.3112607002258301,0.8051864504814148,2.2937614917755127,0.9973728656768799,,,,,,,
4635912000.0,81.73,0.47999998927116394,12041169408.0,1797.4654481195,221.0,-2.3283064365386963e-10,909312.0,1949.4994208812714,1.7569279364693102e-14,0.0,2.2970833778381348,-0.022970814257860184,0.14458858966827393,-0.022970832884311676,1.862645149230957e-08,0.0,-0.1467132270336151,0.5174145698547363,0.5236087402706889,0.4122486114501953,0.5078595876693726,0.2655354142189026,0.7496468424797058,2.278764247894287,0.9973840713500977,,,,,,,
4635912000.0,84.14,0.30000001192092896,12041169408.0,1797.3185836310317,222.0,0.003190453862771392,913408.0,1951.778371334076,1.5893536486899507e-14,0.0,2.349443197250366,-0.023494429886341095,0.14119476079940796,-0.023494431748986244,1.862645149230957e-09,0.0,-0.07562263309955597,0.5260592103004456,0.4214317402220057,0.2909730076789856,0.46352270245552063,0.21535040438175201,0.6916037201881409,2.2789504528045654,0.9974207878112793,,,,,,,
4635912000.0,84.92,0.14000000059604645,12041169408.0,1710.9383656151751,223.0,0.002393929520621896,917504.0,1954.1723792552948,1.5178830414797062e-14,0.0,2.406346321105957,-0.024063466116786003,0.12500298023223877,-0.024063462391495705,-3.725290298461914e-09,0.0,-0.04560177028179169,0.497982919216156,0.45658156620106005,0.19042575359344482,0.41059747338294983,0.14482396841049194,0.6755340099334717,2.394007921218872,0.9977364540100098,,,,,,,
,,,,,,,,,,,,,,,,,,,,,,,,,,0.017134591937065125,0.1073589101433754,0.0992293432354927,0.017134591937065125,0.1073589101433754,0.0992293432354927,
,,,,,,,,,,,,,,,,,,,,,,,,,,0.010118052363395691,0.08633275330066681,0.08492577821016312,0.010118052363395691,0.08633275330066681,0.08492577821016312,
,,,,,,,,,,,,,,,,,,,,,,,,,,0.008082287386059761,0.0792524516582489,0.07669521123170853,0.008082287386059761,0.0792524516582489,0.07669521123170853,
,,,,,,,,,,,,,,,,,,,,,,,,,,0.008253025822341442,0.07334227859973907,0.0729573592543602,0.008253025822341442,0.07334227859973907,0.0729573592543602,
,,,,,,,,,,,,,,,,,,,,,,,,,,0.009266983717679977,0.06979423761367798,0.06993046402931213,0.009266983717679977,0.06979423761367798,0.06993046402931213,
,,,,,,,,,,,,,,,,,,,,,,,,,,0.007775929756462574,0.06625479459762573,0.06571085005998611,0.007775929756462574,0.06625479459762573,0.06571085005998611,
,,,,,,,,,,,,,,,,,,,,,,,,,,,,,,,,0.29
4635912000.0,79.66,0.6100000143051147,11990521856.0,17.01904180878232,224.0,0.006866674870252609,921600.0,2194.8439779281616,1.095304402731756e-14,0.0,2.479597568511963,-0.024795986711978912,0.0858612209558487,-0.024795975536108017,-1.1175870895385742e-08,0.0,0.004980219528079033,0.41441473364830017,0.6914522092410975,0.19708740711212158,0.5733678936958313,0.20206761360168457,0.7460603713989258,240.67159867286682,0.9975244998931885,,,,,,,
4635912000.0,80.7,0.75,12041169408.0,1808.6342185251033,225.0,0.006226894445717335,925696.0,2197.10867023468,1.1234069230425803e-14,0.0,2.469804286956787,-0.0246980432420969,0.10584713518619537,-0.0246980432420969,0.0,0.0,-0.009181568399071693,0.4600670039653778,0.6793601448882476,0.295439213514328,0.6169015765190125,0.28625765442848206,0.8124794363975525,2.2646923065185547,0.9973728656768799,,,,,,,
4635912000.0,80.23,0.8700000047683716,12041169408.0,1801.937756945904,226.0,0.010704212822020054,929792.0,2199.381778717041,1.177356823145459e-14,0.0,2.475587844848633,-0.024755870923399925,0.07354076206684113,-0.024755878373980522,7.2177499532699585e-09,0.0,0.09639668464660645,0.37124502658843994,0.6889137767016411,0.2329392284154892,0.5731064677238464,0.32933589816093445,0.6656106114387512,2.27310848236084,0.9973440170288086,,,,,,,
4635912000.0,77.16,1.2799999713897705,12041169408.0,1717.1508376571448,227.0,0.010385606437921524,933888.0,2201.7671253681183,1.2184697695261093e-14,0.0,2.482844829559326,-0.02482844702899456,0.08103597164154053,-0.02482844702899456,0.0,0.0,0.040500201284885406,0.40058815479278564,0.7118280774162185,0.1921541839838028,0.6640324592590332,0.2326543927192688,0.7462292909622192,2.3853466510772705,0.9975192546844482,,,,,,,
4635912000.0,78.3,1.190000057220459,12041169408.0,1767.2258964959387,228.0,0.009109413251280785,937984.0,2204.084882259369,1.1574075031717257e-14,0.0,2.477015972137451,-0.02477015182375908,0.07613343000411987,-0.024770159274339676,7.450580596923828e-09,0.0,0.10128691792488098,0.37688523530960083,0.6942101285471822,0.15988177061080933,0.5789751410484314,0.2611686587333679,0.6815497875213623,2.3177568912506104,0.9973928928375244,,,,,,,
4635912000.0,82.1,1.0800000429153442,12041169408.0,1776.4616403380226,229.0,0.008314717561006546,942080.0,2206.390589237213,1.0992942667265027e-14,0.0,2.4854767322540283,-0.024854758754372597,0.06591719388961792,-0.024854766204953194,7.450580596923828e-09,0.0,0.007750615943223238,0.3630516529083252,0.7874620857025265,0.22342583537101746,0.6161257028579712,0.2311764508485794,0.7874993085861206,2.3057069778442383,0.9973790645599365,,,,,,,
4635912000.0,75.67,0.9900000095367432,12041169408.0,1791.1636557407285,230.0,0.009281766600906849,946176.0,2208.677370786667,1.1384990172835785e-14,0.0,2.4568347930908203,-0.02456834726035595,0.03803284466266632,-0.02456834726035595,0.0,0.0,0.01734323985874653,0.2752878665924072,0.7600958702063195,0.2545206546783447,0.5322239398956299,0.2718638777732849,0.5620412826538086,2.2867815494537354,0.9973747730255127,,,,,,,
4635912000.0,75.54,0.8700000047683716,12041169408.0,1800.5683659948231,231.0,0.005605613347142935,950272.0,2210.952208042145,1.1751016826266891e-14,0.0,2.4715373516082764,-0.024715375155210495,0.06967975944280624,-0.024715373292565346,-1.862645149230957e-09,0.0,0.0013692742213606834,0.37335193157196045,0.7446796930436741,0.25542932748794556,0.6880640387535095,0.2567986249923706,0.7388831377029419,2.2748372554779053,0.9973249435424805,,,,,,,
4635912000.0,81.22,1.0199999809265137,12041169408.0,1797.5004283482415,232.0,0.009772425517439842,954368.0,2213.2309279441833,1.1782241848834474e-14,0.0,2.4297332763671875,-0.024297326803207397,0.06735534965991974,-0.024297332391142845,4.6566128730773926e-09,0.0,0.038901254534721375,0.3650067448616028,0.6885065923561537,0.2796934247016907,0.6132539510726929,0.31859463453292847,0.6539980173110962,2.278719902038574,0.9977529048919678,,,,,,,
4635912000.0,82.81,1.1100000143051147,12041169408.0,1740.66588008504,233.0,0.00769804697483778,958464.0,2215.5840504169464,1.2743278654525625e-14,0.0,2.424835205078125,-0.024248352274298668,0.05710964649915695,-0.024248352274298668,0.0,0.0,-0.006045660935342312,0.33795061707496643,0.7383078214685818,0.21861091256141663,0.6426203846931458,0.21256524324417114,0.660629391670227,2.3531224727630615,0.9974310398101807,,,,,,,
4635912000.0,79.33,1.2000000476837158,12041169408.0,1790.8527780632833,234.0,0.013637620955705643,962560.0,2217.8712289333344,1.259409243559162e-14,0.0,2.450064182281494,-0.024500638246536255,0.049139492213726044,-0.024500641971826553,3.725290298461914e-09,0.0,0.08387414366006851,0.3021032512187958,0.8071539796433302,0.3685251474380493,0.6800227165222168,0.45239925384521484,0.6879392266273499,2.2871785163879395,0.997535228729248,,,,,,,
4635912000.0,80.12,1.4700000286102295,12041169408.0,1699.8451510409998,235.0,0.011237885802984238,966656.0,2220.280860185623,1.2862974574368025e-14,0.0,2.4470629692077637,-0.024470647796988487,0.0563763752579689,-0.024470629170536995,-1.862645149230957e-08,0.0,0.033033136278390884,0.3341987729072571,0.7889078102374898,0.41472339630126953,0.5993857979774475,0.44775649905204773,0.7273924350738525,2.4096312522888184,0.9975051879882812,,,,,,,
4635912000.0,77.11,1.2000000476837158,12041169408.0,1784.2602314550027,236.0,0.009157998487353325,970752.0,2222.5764894485474,1.3258491526890737e-14,0.0,2.429537057876587,-0.024295372888445854,0.06124339625239372,-0.024295369163155556,-3.259629011154175e-09,0.0,-0.0007035004673525691,0.35002315044403076,0.7759384539216113,0.39778968691825867,0.6557536125183105,0.3970862030982971,0.7394572496414185,2.2956292629241943,0.997359037399292,,,,,,,
4635912000.0,77.41,1.2200000286102295,12041169408.0,1797.482938063686,237.0,0.01093337219208479,974848.0,2224.855231523514,1.3102366414052824e-14,0.0,2.459820508956909,-0.02459820546209812,0.05527109652757645,-0.02459820546209812,0.0,0.0,0.010825968347489834,0.33234310150146484,0.7849620685301204,0.5781985521316528,0.6164188981056213,0.5890244841575623,0.7166863679885864,2.2787420749664307,0.9974901676177979,,,,,,,
4635912000.0,78.68,1.3899999856948853,12041169408.0,1754.6107327639077,238.0,0.012709353119134903,978944.0,2227.189652442932,1.2970527429878587e-14,0.0,2.4463443756103516,-0.024463435634970665,0.04504873603582382,-0.024463443085551262,7.450580596923828e-09,0.0,-4.758499562740326e-05,0.30019906163215637,0.8208858544329929,0.5629867911338806,0.6847859621047974,0.5629391670227051,0.709323525428772,2.334420919418335,0.9976003170013428,,,,,,,
4635912000.0,79.85,1.4800000190734863,12041169408.0,1727.537262649103,239.0,0.012393543496727943,983040.0,2229.5606577396393,1.2937567683835027e-14,0.0,2.4773435592651367,-0.024773433804512024,0.06485313177108765,-0.024773435667157173,9.313225746154785e-10,0.0,0.009304162114858627,0.3600713014602661,0.7617516823204954,0.6002976894378662,0.6604639291763306,0.6096018552780151,0.7376894950866699,2.3710052967071533,0.9973874092102051,,,,,,,
4635912000.0,81.94,1.5099999904632568,12041169408.0,1766.4376535812535,240.0,0.012076430954039097,987136.0,2231.879448890686,1.379452108096757e-14,0.0,2.4455008506774902,-0.024455003440380096,0.06518450379371643,-0.024455007165670395,3.725290298461914e-09,0.0,-0.004633850418031216,0.3610808253288269,0.7587218657660662,0.49927908182144165,0.6680687069892883,0.49464523792266846,0.7350983619689941,2.318791151046753,0.9973952770233154,,,,,,,
4635912000.0,77.93,1.7699999809265137,12041169408.0,1746.7345001296844,241.0,0.01738918572664261,991232.0,2234.2243959903717,1.3279308208602458e-14,0.0,2.4564690589904785,-0.024564692750573158,0.06369408965110779,-0.02456469088792801,-1.862645149230957e-09,0.0,-0.0026614153757691383,0.35694849491119385,0.7773649750233036,0.6209007501602173,0.7049806118011475,0.6182393431663513,0.756499707698822,2.344947099685669,0.9973878860473633,,,,,,,
4635912000.0,76.65,1.690000057220459,12041169408.0,1781.1007580932621,242.0,0.013689377345144749,995328.0,2236.524097442627,1.351176115438335e-14,0.0,2.4488508701324463,-0.02448851242661476,0.07080186903476715,-0.024488508701324463,-3.725290298461914e-09,0.0,0.030790558084845543,0.3750867247581482,0.7581649575302641,0.5580211281776428,0.6920276284217834,0.5888116955757141,0.762732207775116,2.299701452255249,0.9975547790527344,,,,,,,
4635912000.0,88.12,1.6100000143051147,12041169408.0,1806.463527770435,243.0,0.009500332176685333,999424.0,2238.7915110588074,1.3239409568654992e-14,0.0,2.4517061710357666,-0.024517059326171875,0.09923355281352997,-0.024517061188817024,9.313225746154785e-10,0.0,0.02302684634923935,0.4449552893638611,0.5803655201455715,0.4657596945762634,0.5778136253356934,0.4887865483760834,0.6868798732757568,2.26741361618042,0.9973320960998535,,,,,,,
4635912000.0,90.45,1.4700000286102295,12041169408.0,1795.3721249529992,244.0,0.010465255007147789,1003520.0,2241.072932243347,1.4738210651898953e-14,0.0,2.4478845596313477,-0.024478834122419357,0.10889214277267456,-0.024478845298290253,1.1175870895385742e-08,0.0,-0.05666013062000275,0.46327778697013855,0.6981906498723114,0.5218316316604614,0.6579847931861877,0.4651715159416199,0.8432865142822266,2.281421184539795,0.9975917339324951,,,,,,,
4635912000.0,77.45,1.3799999952316284,12041169408.0,1781.8435587524345,245.0,0.013689682818949223,1007616.0,2243.371675014496,1.482668154917377e-14,0.0,2.400341272354126,-0.02400340512394905,0.059314727783203125,-0.024003412574529648,7.450580596923828e-09,0.0,0.02888518199324608,0.34325480461120605,0.7481834352697532,0.5097898244857788,0.6067443490028381,0.5386750102043152,0.6840289831161499,2.2987427711486816,0.9976754188537598,,,,,,,
4635912000.0,82.29,1.6399999856948853,12041169408.0,1741.7976405052348,246.0,0.01192065142095089,1011712.0,2245.723268508911,1.3784112740111709e-14,0.0,2.4390382766723633,-0.024390367791056633,0.06759052723646164,-0.024390382692217827,1.4901161193847656e-08,0.0,0.012754605151712894,0.36749333143234253,0.7078852273922438,0.5624210834503174,0.5824790000915527,0.5751757621765137,0.679943323135376,2.351593494415283,0.9974315166473389,,,,,,,
4635912000.0,84.56,1.6399999856948853,12041169408.0,1778.5780940454656,247.0,0.010316881351172924,1015808.0,2248.026231765747,1.4066872666695929e-14,0.0,2.457911491394043,-0.024579131975769997,0.06164612993597984,-0.024579115211963654,-1.6763806343078613e-08,0.0,-0.006204664707183838,0.3511180281639099,0.7423289263377467,0.5909423232078552,0.609626054763794,0.5847376585006714,0.6917039752006531,2.3029632568359375,0.9974148273468018,,,,,,,
4635912000.0,84.66,1.5099999904632568,12041169408.0,1745.8318895390134,248.0,0.012584405019879341,1019904.0,2250.3723912239075,1.416922135177856e-14,0.0,2.469254493713379,-0.024692537263035774,0.03575263172388077,-0.02469254471361637,7.450580596923828e-09,0.0,0.01285212580114603,0.26712825894355774,0.7694805143498957,0.48645511269569397,0.538345456123352,0.499307245016098,0.5563730001449585,2.3461594581604004,0.997431755065918,,,,,,,
4635912000.0,82.6,1.7200000286102295,12041169408.0,1789.9677880445286,249.0,0.018873676657676697,1024000.0,2252.660700559616,1.5982007384174324e-14,0.0,2.4059481620788574,-0.024059485644102097,0.045841850340366364,-0.024059481918811798,-3.725290298461914e-09,0.0,0.04039259999990463,0.30012351274490356,0.8480312275004767,0.6643604040145874,0.7039127945899963,0.704753041267395,0.7698796987533569,2.288309335708618,0.9975545406341553,,,,,,,
4635912000.0,79.88,1.840000033378601,12041169408.0,1793.8534661156982,250.0,0.011942325159907341,1028096.0,2254.944053173065,1.6479873021779667e-14,0.0,2.379338026046753,-0.02379339374601841,0.06917223334312439,-0.023793378844857216,-1.4901161193847656e-08,0.0,0.013548966497182846,0.37174537777900696,0.6904761391105163,0.5124588012695312,0.575568437576294,0.5260077118873596,0.6681877374649048,2.2833526134490967,0.9973893165588379,,,,,,,
4635912000.0,80.55,1.340000033378601,12041169408.0,1796.5831180136122,251.0,0.008882762864232063,1032192.0,2257.22393655777,1.5666287711546545e-14,0.0,2.387388229370117,-0.023873882368206978,0.06110799312591553,-0.023873882368206978,0.0,0.0,-0.013548662886023521,0.34937405586242676,0.7140112964029157,0.38257136940956116,0.5252230167388916,0.3690227270126343,0.6533052921295166,2.27988338470459,0.9974985122680664,,,,,,,
4635912000.0,75.16,1.059999942779541,12041169408.0,1760.0507226302857,252.0,0.010023427195847034,1036288.0,2259.5511422157288,1.452310494087783e-14,0.0,2.3824026584625244,-0.023824021220207214,0.04841256141662598,-0.023824026808142662,5.587935447692871e-09,0.0,-0.01279616728425026,0.3109420835971832,0.7791674721584274,0.46508684754371643,0.5444915294647217,0.45229071378707886,0.6616799831390381,2.3272056579589844,0.9974217414855957,,,,,,,
4635912000.0,75.74,1.2899999618530273,12041169408.0,1809.5764594008212,253.0,0.014065157622098923,1040384.0,2261.814655303955,1.6361911825413245e-14,0.0,2.4101881980895996,-0.024101877585053444,0.0687791109085083,-0.024101881310343742,3.725290298461914e-09,0.0,0.0074256230145692825,0.3708593249320984,0.748972305509477,0.5737917423248291,0.5995186567306519,0.5812174081802368,0.7401988506317139,2.2635130882263184,0.997260332107544,,,,,,,
4635912000.0,85.34,1.75,12041169408.0,1702.8695239144968,254.0,0.013412633910775185,1044480.0,2264.220006942749,1.651630221477518e-14,0.0,2.40358304977417,-0.02403581514954567,0.07604013383388519,-0.024035830050706863,1.4901161193847656e-08,0.0,0.010268662124872208,0.38988709449768066,0.7210917593580779,0.5817118287086487,0.6274784803390503,0.5919804573059082,0.7382579445838928,2.4053516387939453,0.9975156784057617,,,,,,,
4635912000.0,95.12,2.2100000381469727,12041169408.0,1788.817471652806,255.0,0.014710497111082077,1048576.0,2266.509787797928,1.7069679003611782e-14,0.0,2.3763296604156494,-0.023763302713632584,0.04038102924823761,-0.023763295263051987,-7.450580596923828e-09,0.0,0.04299048334360123,0.2809504270553589,0.772874858000582,0.4986567795276642,0.534153938293457,0.5416472554206848,0.5895180702209473,2.289780855178833,0.9974539279937744,,,,,,,
,,,,,,,,,,,,,,,,,,,,,,,,,,0.014497729949653149,0.08722760528326035,0.07711467891931534,0.014497729949653149,0.08722760528326035,0.07711467891931534,
,,,,,,,,,,,,,,,,,,,,,,,,,,0.008715725503861904,0.06931755691766739,0.06761600077152252,0.008715725503861904,0.06931755691766739,0.06761600077152252,
