CpuMaxMemory,EpLenMean,EpRewMean,GpuMaxMemory,IPS_total,Iter,Misc/FrameRewMean,Misc/InteractCount,Misc/TimeElapsed,Opt/approxkl,Opt/clipfrac,Opt/entropy,Opt/loss_pi,Opt/loss_vf,Opt/negent,Opt/pg,Opt/pi_kl,VFStats/AdvMean,VFStats/AdvStd,VFStats/EV,VFStats/VpredMean,VFStats/VpredStd,VFStats/VtargMean,VFStats/VtargStd,del_time,wait_optimization,scaled/pol_distance,scaled/vf_aux,scaled/vf_true,unscaled/pol_distance,unscaled/vf_aux,unscaled/vf_true,EvalEpMean
3179664000.0,83.07142857142857,-3.190476179122925,12268077568.0,1054.42055583362,0.0,-0.015171322040259838,4096.0,3.8845980167388916,2.7547408798511697e-15,0.0,2.707402229309082,-0.027074014768004417,0.1780225932598114,-0.027074022218585014,7.450580596923828e-09,0.0,-0.21734465658664703,0.5557714700698853,0.0016825971119049932,-0.01273762434720993,0.008101244457066059,-0.23008227348327637,0.5562396049499512,3.8845980167388916,1.0105352401733398,,,,,,,
3377744000.0,83.52272727272727,-2.7613637447357178,12485313536.0,1113.0235556579182,1.0,-0.013226752169430256,8192.0,7.564663887023926,2.796374243274613e-15,0.0,2.705893039703369,-0.027058931067585945,0.15740489959716797,-0.027058929204940796,-2.3283064365386963e-09,0.0,-0.17758536338806152,0.5322991609573364,-0.017452341070629318,-0.16886427998542786,0.047203171998262405,-0.3464496433734894,0.527714192867279,3.680065870285034,0.9965243339538574,,,,,,,
3575476000.0,82.97,-2.799999952316284,12485313536.0,1093.5864538871565,2.0,-0.014288573525846004,12288.0,11.31013822555542,3.0461744238152733e-15,0.0,2.7037885189056396,-0.027037877589464188,0.16673924028873444,-0.027037885040044785,7.450580596923828e-09,0.0,-0.08156731724739075,0.57175612449646,0.06125303903117396,-0.4616899788379669,0.142879918217659,-0.5432572364807129,0.5901148319244385,3.745474338531494,0.9969820976257324,,,,,,,
3773476000.0,82.98,-3.190000057220459,12485313536.0,1081.0366593774793,3.0,-0.014477016404271126,16384.0,15.099093914031982,3.5110803153770576e-15,0.0,2.6989612579345703,-0.026989609003067017,0.18816253542900085,-0.026989612728357315,2.7939677238464355e-09,0.0,-0.023099325597286224,0.6130931377410889,0.14407782748395803,-0.8685320615768433,0.2815052568912506,-0.8916313648223877,0.6626883149147034,3.7889556884765625,0.9963674545288086,,,,,,,
3971740000.0,85.29,-3.0199999809265137,12485313536.0,1099.3058377231782,4.0,-0.013052096590399742,20480.0,18.82508158683777,3.497202527569243e-15,0.0,2.6959643363952637,-0.026959631592035294,0.2358347624540329,-0.02695964276790619,1.1175870895385742e-08,0.0,0.08762656152248383,0.681252121925354,0.12443250916485815,-1.4294281005859375,0.34498131275177,-1.341801643371582,0.7280531525611877,3.725987672805786,0.9964628219604492,,,,,,,
4169212000.0,89.38,-2.8399999141693115,12485313536.0,1108.6588973909663,5.0,-0.0125236501917243,24576.0,22.519635438919067,3.524958103184872e-15,0.0,2.6950953006744385,-0.026950955390930176,0.23341858386993408,-0.026950951665639877,-3.725290298461914e-09,0.0,0.13300234079360962,0.6702665090560913,0.008760910499091334,-1.2395763397216797,0.28477075695991516,-1.1065738201141357,0.6732218861579895,3.694553852081299,0.996375322341919,,,,,,,
4366948000.0,86.65,-2.509999990463257,12485313536.0,1117.4379790531468,6.0,-0.013022659346461296,28672.0,26.185163259506226,3.851086116668512e-15,0.0,2.685807228088379,-0.02685806155204773,0.1812809407711029,-0.026858070865273476,9.313225746154785e-09,0.0,0.002054445445537567,0.6022011637687683,0.09733763816494045,-0.8765264749526978,0.2773231565952301,-0.8744719624519348,0.6338388919830322,3.665527820587158,0.9962558746337891,,,,,,,
4564420000.0,89.74,-2.5299999713897705,12485313536.0,1060.3242162860622,7.0,-0.00797881931066513,32768.0,30.04813265800476,4.7531423241764514e-15,0.0,2.6765642166137695,-0.026765646412968636,0.13829807937145233,-0.026765640825033188,-5.587935447692871e-09,0.0,0.0048830704763531685,0.525965690612793,0.1796814395732732,-0.6768370866775513,0.21792325377464294,-0.6719540357589722,0.5807191729545593,3.862969398498535,0.9962420463562012,,,,,,,
4762156000.0,95.22,-2.2699999809265137,12485313536.0,1081.0087703324637,8.0,-0.011572064831852913,36864.0,33.837186098098755,4.799979858027825e-15,0.0,2.6689071655273438,-0.026689063757658005,0.15166038274765015,-0.0266890712082386,7.450580596923828e-09,0.0,-0.034395746886730194,0.5497376322746277,0.05945471158682669,-0.5880535840988159,0.1331842839717865,-0.6224493384361267,0.5668466091156006,3.789053440093994,0.9966928958892822,,,,,,,
4960420000.0,90.19,-2.5,12485313536.0,1117.911412199005,9.0,-0.015129893086850643,40960.0,37.50116157531738,5.547645676173829e-15,0.0,2.6559665203094482,-0.02655966579914093,0.1617364138364792,-0.02655966393649578,-2.7939677238464355e-09,0.0,-0.07593870162963867,0.5637230277061462,0.023224960339628176,-0.5146588683128357,0.11061073839664459,-0.5905976295471191,0.5703856348991394,3.663975477218628,0.9965031147003174,,,,,,,
5157892000.0,87.19,-2.9100000858306885,12485313536.0,1119.9531926405868,10.0,-0.011151410639286041,45056.0,41.15845727920532,5.818262538426211e-15,0.0,2.6518797874450684,-0.026518797501921654,0.14680323004722595,-0.026518797501921654,0.0,0.0,-0.06458960473537445,0.5380570292472839,0.016294259548553236,-0.4614676833152771,0.10000768303871155,-0.5260573029518127,0.5424949526786804,3.6572957038879395,0.9965662956237793,,,,,,,
5355628000.0,88.33,-2.299999952316284,12485313536.0,1120.6531346661554,11.0,-0.014532436616718769,49152.0,44.81346869468689,5.254477408733749e-15,0.0,2.63157320022583,-0.026315730065107346,0.1621522754430771,-0.026315731927752495,1.862645149230957e-09,0.0,-0.09305792301893234,0.5618913173675537,0.07517387238193507,-0.47916144132614136,0.1336878091096878,-0.5722193717956543,0.5842817425727844,3.6550114154815674,0.9964778423309326,,,,,,,
5553100000.0,89.59,-2.1600000858306885,12485313536.0,1101.2104872188422,12.0,-0.004521895665675402,53248.0,48.53301191329956,5.500808142322455e-15,0.0,2.5995731353759766,-0.025995731353759766,0.12163600325584412,-0.025995731353759766,0.0,0.0,0.04839834198355675,0.4909057319164276,0.12464145203868737,-0.5664800405502319,0.15027578175067902,-0.5180816650390625,0.5246927738189697,3.719543218612671,0.9966566562652588,,,,,,,
5750836000.0,87.96,-1.399999976158142,12485313536.0,1102.2887605342203,13.0,-0.006017924752086401,57344.0,52.24891662597656,5.792241686286559e-15,0.0,2.591689348220825,-0.02591688185930252,0.10983197391033173,-0.025916893035173416,1.1175870895385742e-08,0.0,0.06400799006223679,0.46434855461120605,0.07185627400293015,-0.5942876935005188,0.1657702773809433,-0.5302796959877014,0.48198825120925903,3.715904712677002,0.9961643218994141,,,,,,,
5949248000.0,82.14,-1.159999966621399,12485313536.0,1113.576689330739,14.0,-0.009333241730928421,61440.0,55.927154541015625,5.670811042968182e-15,0.0,2.5624914169311523,-0.025624915957450867,0.16306498646736145,-0.025624914094805717,-1.862645149230957e-09,0.0,-0.0235033817589283,0.5706637501716614,0.0365166537853705,-0.6026135683059692,0.13438524305820465,-0.626116931438446,0.5813774466514587,3.6782379150390625,0.9969692230224609,,,,,,,
6146984000.0,81.93,-1.5299999713897705,12485313536.0,1092.9292210975116,15.0,-0.00967335980385542,65536.0,59.67488121986389,5.691627724679904e-15,0.0,2.598766803741455,-0.025987658649683,0.1755845993757248,-0.025987667962908745,9.313225746154785e-09,0.0,0.01223344448953867,0.5925413966178894,0.10332530079964031,-0.58861243724823,0.16052930057048798,-0.5763790011405945,0.6257504820823669,3.7477266788482666,0.9964325428009033,,,,,,,
6343928000.0,85.72,-1.7200000286102295,12485313536.0,1117.2203387934696,16.0,-0.008467981591820717,69632.0,63.34112310409546,5.252742685257772e-15,0.0,2.641871452331543,-0.026418713852763176,0.16190502047538757,-0.026418713852763176,0.0,0.0,-0.021209411323070526,0.5687171220779419,0.0548926724067722,-0.4885145425796509,0.16718849539756775,-0.5097239017486572,0.5849997401237488,3.6662418842315674,0.9964606761932373,,,,,,,
6541400000.0,90.05,-2.3399999141693115,12485313536.0,1102.3751221172076,17.0,-0.013752255588769913,73728.0,67.05673670768738,5.143455106271233e-15,0.0,2.645847797393799,-0.026458485051989555,0.15111446380615234,-0.02645847760140896,-7.450580596923828e-09,0.0,-0.06480095535516739,0.5459876656532288,0.0632398269412171,-0.4636290669441223,0.15495197474956512,-0.5284299850463867,0.5641162395477295,3.715613603591919,0.996593713760376,,,,,,,
6739928000.0,84.92,-2.069999933242798,12485313536.0,1114.9459042040012,18.0,-0.009182565845549107,77824.0,70.73045754432678,4.640385298237959e-15,0.0,2.6575779914855957,-0.026575777679681778,0.14168709516525269,-0.026575779542326927,1.862645149230957e-09,0.0,-0.011488251388072968,0.5322700142860413,0.1618659795515306,-0.5114032626152039,0.23431473970413208,-0.5228914618492126,0.5814002752304077,3.6737208366394043,0.996457576751709,,,,,,,
6937664000.0,80.13,-1.3300000429153442,12485313536.0,1107.340186261452,19.0,-0.0061269486322999,81920.0,74.42941117286682,4.145989107584569e-15,0.0,2.6602303981781006,-0.02660229615867138,0.13429513573646545,-0.026602303609251976,7.450580596923828e-09,0.0,0.02474004030227661,0.5177292823791504,0.08259372619694993,-0.49376189708709717,0.21841585636138916,-0.46902185678482056,0.5405325889587402,3.698953628540039,0.996368408203125,,,,,,,
7134608000.0,83.72,-1.3899999856948853,12485313536.0,1101.1948172685327,20.0,-0.010198216885328293,86016.0,78.14900732040405,5.136516212367326e-15,0.0,2.6284701824188232,-0.026284703984856606,0.1342061161994934,-0.026284702122211456,-1.862645149230957e-09,0.0,0.018314549699425697,0.5178245902061462,0.10147104819873798,-0.6349561810493469,0.19512048363685608,-0.616641640663147,0.5462816953659058,3.7195961475372314,0.9964981079101562,,,,,,,
7332344000.0,82.48,-1.4800000190734863,12485313536.0,1092.6404056156293,21.0,-0.0071235294453799725,90112.0,81.89772462844849,4.603956105242446e-15,0.0,2.6405344009399414,-0.026405343785881996,0.14101910591125488,-0.026405343785881996,0.0,0.0,0.06303100287914276,0.5273833274841309,0.16561159252920654,-0.6746481657028198,0.2582942843437195,-0.6116170883178711,0.5773541331291199,3.7487173080444336,0.9964785575866699,,,,,,,
7530080000.0,83.15,-1.3300000429153442,12485313536.0,1116.1336254706491,22.0,-0.007914735935628414,94208.0,85.56753611564636,4.335073966466041e-15,0.0,2.653536319732666,-0.02653536945581436,0.16050182282924652,-0.026535362005233765,-7.450580596923828e-09,0.0,-0.009184667840600014,0.5665665864944458,0.08609449754706122,-0.5486593842506409,0.21627314388751984,-0.5578440427780151,0.5926527380943298,3.669811487197876,0.9966213703155518,,,,,,,
7728344000.0,80.8,-1.909999966621399,12485313536.0,1079.6945851333094,23.0,-0.013234227895736694,98304.0,89.3612015247345,4.9144716074422945e-15,0.0,2.6478190422058105,-0.02647818624973297,0.16577132046222687,-0.02647818997502327,3.725290298461914e-09,0.0,-0.058527037501335144,0.5728850960731506,0.1100307555449439,-0.48677173256874084,0.19277362525463104,-0.5452988147735596,0.6072676181793213,3.7936654090881348,0.9966244697570801,,,,,,,
7926872000.0,80.58,-2.4700000286102295,12485313536.0,1111.2473959549511,24.0,-0.014859465882182121,102400.0,93.04714941978455,5.190292640122607e-15,0.0,2.6283276081085205,-0.026283282786607742,0.19378545880317688,-0.026283275336027145,-7.450580596923828e-09,0.0,-0.0625898689031601,0.6194732785224915,0.13862364523890824,-0.5460069179534912,0.23005864024162292,-0.6085968017578125,0.6674612760543823,3.685947895050049,0.9969429969787598,,,,,,,
8124088000.0,77.32,-2.359999895095825,12485313536.0,1076.8451571372248,25.0,-0.015228964388370514,106496.0,96.85085320472717,5.35162192338845e-15,0.0,2.6224989891052246,-0.02622499316930771,0.17055517435073853,-0.02622498944401741,-3.725290298461914e-09,0.0,-0.07597438991069794,0.5791547298431396,0.09821378272370995,-0.5252522230148315,0.20912185311317444,-0.6012265682220459,0.6098777055740356,3.803703784942627,0.9965240955352783,,,,,,,
8321824000.0,77.47,-2.4800000190734863,12485313536.0,1110.748923573944,26.0,-0.016640111804008484,110592.0,100.53845524787903,5.152128723651117e-15,0.0,2.6122474670410156,-0.026122480630874634,0.17091813683509827,-0.026122473180294037,-7.450580596923828e-09,0.0,-0.08179707825183868,0.5789881944656372,0.1635316235512153,-0.5669248104095459,0.2733347415924072,-0.6487218141555786,0.633060097694397,3.6876020431518555,0.9966118335723877,,,,,,,
8519296000.0,78.4,-2.359999895095825,12485313536.0,1079.7012349663971,27.0,-0.011065773665904999,114688.0,104.33209729194641,5.551115123125783e-15,0.0,2.5961103439331055,-0.025961101055145264,0.16270415484905243,-0.025961102917790413,1.862645149230957e-09,0.0,0.03359823673963547,0.5695249438285828,0.1373941512386394,-0.6499624848365784,0.3003433346748352,-0.6163642406463623,0.6132062673568726,3.793642044067383,0.9963610172271729,,,,,,,
8717032000.0,78.5,-1.850000023841858,12485313536.0,1091.5009538316995,28.0,-0.00996461883187294,118784.0,108.08472800254822,5.254477408733749e-15,0.0,2.5588197708129883,-0.025588195770978928,0.1557363122701645,-0.025588197633624077,1.862645149230957e-09,0.0,0.05061925947666168,0.5558648705482483,0.03697342125966696,-0.7318131327629089,0.21750622987747192,-0.6811938881874084,0.5664350390434265,3.7526307106018066,0.9964449405670166,,,,,,,
8914504000.0,77.65,-1.690000057220459,12485313536.0,1110.1112900857906,29.0,-0.008844923228025436,122880.0,111.77444815635681,5.3099885599650065e-15,0.0,2.504650115966797,-0.025046508759260178,0.10332080721855164,-0.02504650130867958,-7.450580596923828e-09,0.0,0.09288875013589859,0.4450412094593048,0.09735062578996934,-0.7214100360870361,0.19717980921268463,-0.6285212635993958,0.4684256315231323,3.6897201538085938,0.9964652061462402,,,,,,,
9111976000.0,75.42,-1.340000033378601,12485313536.0,1101.6836190646584,30.0,-0.006613723933696747,126976.0,115.4923939704895,6.019490461639521e-15,0.0,2.478943347930908,-0.024789433926343918,0.11854442954063416,-0.02478943206369877,-1.862645149230957e-09,0.0,0.060531239956617355,0.4831995964050293,0.08865729147386214,-0.6311964988708496,0.23747070133686066,-0.570665180683136,0.5061574578285217,3.7179458141326904,0.9978446960449219,,,,,,,
9309712000.0,75.98,-1.1699999570846558,12485313536.0,1104.903557134818,31.0,-0.010417668148875237,131072.0,119.19950485229492,5.700301342059788e-15,0.0,2.4249207973480225,-0.024249203503131866,0.14693593978881836,-0.024249207228422165,3.725290298461914e-09,0.0,-0.019818920642137527,0.541803240776062,0.1290840567155075,-0.4847709834575653,0.2033761888742447,-0.5045899152755737,0.5805685520172119,3.70711088180542,0.9963779449462891,,,,,,,
,,,,,,,,,,,,,,,,,,,,,,,,,,0.006434103939682245,0.19312842190265656,0.1833893358707428,0.006434103939682245,0.19312842190265656,0.1833893358707428,
,,,,,,,,,,,,,,,,,,,,,,,,,,0.002466247882694006,0.1796705424785614,0.17091794312000275,0.002466247882694006,0.1796705424785614,0.17091794312000275,
,,,,,,,,,,,,,,,,,,,,,,,,,,0.0019529288401827216,0.17046873271465302,0.16194547712802887,0.0019529288401827216,0.17046873271465302,0.16194547712802887,
,,,,,,,,,,,,,,,,,,,,,,,,,,0.0024081277661025524,0.16079933941364288,0.15579558908939362,0.0024081277661025524,0.16079933941364288,0.15579558908939362,
,,,,,,,,,,,,,,,,,,,,,,,,,,0.00210780487395823,0.15538963675498962,0.148085817694664,0.00210780487395823,0.15538963675498962,0.148085817694664,
,,,,,,,,,,,,,,,,,,,,,,,,,,0.002459342358633876,0.14665907621383667,0.14098379015922546,0.002459342358633876,0.14665907621383667,0.14098379015922546,
,,,,,,,,,,,,,,,,,,,,,,,,,,,,,,,,-2.09
9363908000.0,76.77,-1.4700000286102295,12293100544.0,16.034715561664157,32.0,-0.007250462658703327,135168.0,374.64525842666626,5.240599620925934e-15,0.0,2.358175754547119,-0.023581769317388535,0.08162672817707062,-0.02358175627887249,-1.210719347000122e-08,0.0,0.0776110291481018,0.39657074213027954,0.3150150020119591,-0.4624561071395874,0.2346896082162857,-0.3848450779914856,0.47915956377983093,255.44575357437134,0.9965798854827881,,,,,,,
9363908000.0,77.62,-1.4900000095367432,12495335936.0,1116.3786262680953,33.0,-0.009695116430521011,139264.0,378.31426453590393,4.503342143635791e-15,0.0,2.349330425262451,-0.023493308573961258,0.11635628342628479,-0.02349330298602581,-5.587935447692871e-09,0.0,-0.008158908225595951,0.482392817735672,0.31313578931175723,-0.4594258964061737,0.252947598695755,-0.4675847887992859,0.5820567607879639,3.669006109237671,0.9963712692260742,,,,,,,
9363908000.0,77.19,-1.6799999475479126,12495335936.0,1126.6840010309434,34.0,-0.0113170575350523,143360.0,381.949711561203,4.8520215623071294e-15,0.0,2.2343955039978027,-0.02234395034611225,0.10503385215997696,-0.02234395407140255,3.725290298461914e-09,0.0,-0.017351724207401276,0.45805877447128296,0.3865682436207438,-0.445684552192688,0.31135278940200806,-0.4630362391471863,0.584841251373291,3.6354470252990723,0.9964303970336914,,,,,,,
9363908000.0,76.44,-1.7799999713897705,12495335936.0,1102.8484767094346,35.0,-0.01134326308965683,147456.0,385.6637303829193,5.353356646864427e-15,0.0,2.1866559982299805,-0.021866558119654655,0.09720225632190704,-0.021866559982299805,1.862645149230957e-09,0.0,0.00505019910633564,0.44093820452690125,0.3987350542945465,-0.4493520259857178,0.3114234209060669,-0.4443018138408661,0.5686497092247009,3.7140188217163086,0.9964444637298584,,,,,,,
9363908000.0,76.48,-1.5199999809265137,12495335936.0,1117.3093466825285,36.0,-0.005587021354585886,151552.0,389.3296802043915,5.97091820431217e-15,0.0,2.0749142169952393,-0.020749136805534363,0.06589744985103607,-0.02074914239346981,5.587935447692871e-09,0.0,0.056411996483802795,0.3586697280406952,0.38851220815518794,-0.3982369303703308,0.2644869387149811,-0.3418249487876892,0.4586705267429352,3.665949821472168,0.9966130256652832,,,,,,,
9363908000.0,76.61,-1.190000057220459,12495335936.0,1119.1084522709964,37.0,-0.009472087025642395,155648.0,392.98973655700684,6.081940506774686e-15,0.0,1.994168996810913,-0.01994168944656849,0.0778777152299881,-0.01994168944656849,0.0,0.0,0.006007330492138863,0.3946610987186432,0.5138369811949981,-0.41567501425743103,0.33246341347694397,-0.4096676707267761,0.5660220384597778,3.6600563526153564,0.9967741966247559,,,,,,,
9363908000.0,75.71,-1.2300000190734863,12495335936.0,1106.3657138389694,38.0,-0.006703920196741819,159744.0,396.6919481754303,5.936223734792634e-15,0.0,1.994544267654419,-0.019945457577705383,0.06184116005897522,-0.01994544267654419,-1.4901161193847656e-08,0.0,0.06492380797863007,0.3456825017929077,0.5642416634783065,-0.3857639729976654,0.37044525146484375,-0.32084012031555176,0.5236661434173584,3.702211618423462,0.9963250160217285,,,,,,,
9363908000.0,77.35,-1.0800000429153442,12495335936.0,1103.0750720856702,39.0,-0.005682910792529583,163840.0,400.4052040576935,5.944897352172518e-15,0.0,2.0164661407470703,-0.02016466110944748,0.056349460035562515,-0.02016466110944748,9.313225746154785e-10,0.0,0.028857659548521042,0.3345048427581787,0.4617852238716442,-0.3309704065322876,0.29785022139549255,-0.30211275815963745,0.45595771074295044,3.7132558822631836,0.9962332248687744,,,,,,,
9363908000.0,77.5,-1.0399999618530273,12495335936.0,1101.2966799177982,40.0,-0.008918355219066143,167936.0,404.12445616722107,5.648259637780484e-15,0.0,2.024543523788452,-0.020245438441634178,0.08185189962387085,-0.02024543471634388,-3.725290298461914e-09,0.0,0.0026334673166275024,0.40464410185813904,0.5370113907335823,-0.3454495668411255,0.3691333532333374,-0.3428161144256592,0.5946864485740662,3.719252109527588,0.9969151020050049,,,,,,,
9363908000.0,75.58,-1.2000000476837158,12495335936.0,1115.050978208311,41.0,-0.00526454159989953,172032.0,407.7978308200836,5.629177679544739e-15,0.0,2.061540126800537,-0.02061540260910988,0.053576596081256866,-0.02061540074646473,-1.862645149230957e-09,0.0,0.02462073788046837,0.3264552354812622,0.5032161780438554,-0.2898623049259186,0.30352726578712463,-0.2652415931224823,0.4631694555282593,3.673374652862549,0.9966704845428467,,,,,,,
9363908000.0,74.63,-0.8700000047683716,12495335936.0,1101.5551270985009,42.0,-0.004688313230872154,176128.0,411.5162103176117,5.304784389537076e-15,0.0,2.1192498207092285,-0.02119249850511551,0.05713707208633423,-0.02119249850511551,0.0,0.0,0.02148432843387127,0.3374023735523224,0.45061950823200614,-0.22646655142307281,0.2564895749092102,-0.2049822211265564,0.4552097022533417,3.718379497528076,0.9964492321014404,,,,,,,
9363908000.0,75.1,-0.6600000262260437,12495335936.0,1084.2331348712985,43.0,-0.0036286048125475645,180224.0,415.2939956188202,5.242334344401911e-15,0.0,2.1031644344329834,-0.02103165164589882,0.05548804998397827,-0.021031644195318222,-7.450580596923828e-09,0.0,0.03581099957227707,0.33124077320098877,0.22599448471749428,-0.17709431052207947,0.22688178718090057,-0.1412833034992218,0.37650594115257263,3.777785301208496,0.9970498085021973,,,,,,,
9363908000.0,76.4,-0.6299999952316284,12495335936.0,1126.8690514405864,44.0,-0.008264067582786083,184320.0,418.9288456439972,6.024694632067451e-15,0.0,2.038642168045044,-0.020386429503560066,0.06783206760883331,-0.02038642205297947,-7.450580596923828e-09,0.0,-0.031425707042217255,0.3670278489589691,0.49579025587295666,-0.19770941138267517,0.2902716100215912,-0.22913511097431183,0.5168843865394592,3.634850025177002,0.9972286224365234,,,,,,,
9363908000.0,76.0,-1.1399999856948853,12495335936.0,1101.6454003453473,45.0,-0.0068319858983159065,188416.0,422.6469204425812,6.2363308961366215e-15,0.0,2.0224664211273193,-0.020224660634994507,0.060546260327100754,-0.020224664360284805,2.7939677238464355e-09,0.0,-0.0031174980103969574,0.3480120301246643,0.42970526638189366,-0.17332381010055542,0.28035372495651245,-0.17644131183624268,0.4608340561389923,3.7180747985839844,0.9963855743408203,,,,,,,
9363908000.0,75.8,-0.9399999976158142,12495335936.0,1126.896104635527,46.0,-0.0063711428083479404,192512.0,426.2816832065582,5.56325818745762e-15,0.0,2.0172557830810547,-0.02017255127429962,0.06256798654794693,-0.02017255686223507,5.587935447692871e-09,0.0,0.002232065424323082,0.3537817597389221,0.5071014628676773,-0.20574310421943665,0.33767420053482056,-0.203511044383049,0.5039142966270447,3.634762763977051,0.9963428974151611,,,,,,,
9363908000.0,74.39,-0.9700000286102295,12495335936.0,1117.4694512552276,47.0,-0.00725603848695755,196608.0,429.94710779190063,6.0385724198752655e-15,0.0,2.0259218215942383,-0.02025921829044819,0.06073646992444992,-0.02025921829044819,0.0,0.0,0.0018206723034381866,0.34856748580932617,0.42757741959484796,-0.18645672500133514,0.32899555563926697,-0.18463605642318726,0.46071091294288635,3.6654245853424072,0.9961538314819336,,,,,,,
9363908000.0,73.64,-1.2000000476837158,12495335936.0,1122.336101195506,48.0,-0.008765884675085545,200704.0,433.5966384410858,5.4279497563314294e-15,0.0,1.9789596796035767,-0.019789602607488632,0.06826204806566238,-0.019789597019553185,-5.587935447692871e-09,0.0,-0.026587750762701035,0.36857882142066956,0.5666105695798962,-0.21770069003105164,0.4101766049861908,-0.24428844451904297,0.5598751902580261,3.6495306491851807,0.9971261024475098,,,,,,,
9363908000.0,75.98,-1.2799999713897705,12495335936.0,1117.8645672689236,49.0,-0.00829828530550003,204800.0,437.2607674598694,5.51468593013027e-15,0.0,1.9711194038391113,-0.01971118152141571,0.07787855714559555,-0.019711192697286606,1.0244548320770264e-08,0.0,-0.007239843253046274,0.39464253187179565,0.5324958222839056,-0.23616254329681396,0.40549221634864807,-0.2434023767709732,0.5771797895431519,3.6641290187835693,0.99642014503479,,,,,,,
9363908000.0,79.04,-1.649999976158142,12495335936.0,1103.9659981024236,50.0,-0.01325264386832714,208896.0,440.97102665901184,5.460909502374989e-15,0.0,2.0358879566192627,-0.020358886569738388,0.09754430502653122,-0.02035887911915779,-7.450580596923828e-09,0.0,-0.07876776158809662,0.43466120958328247,0.5431073770442989,-0.23005340993404388,0.3983759880065918,-0.3088211715221405,0.6430485844612122,3.710259199142456,0.9966278076171875,,,,,,,
9363908000.0,78.97,-1.75,12495335936.0,1122.6701759416615,51.0,-0.008568963035941124,212992.0,444.6194713115692,5.441827544139244e-15,0.0,2.0180702209472656,-0.020180702209472656,0.07212761044502258,-0.020180702209472656,9.313225746154785e-10,0.0,0.007926106452941895,0.3797731101512909,0.6595052984655473,-0.3078944683074951,0.4907594323158264,-0.2999683916568756,0.6508322358131409,3.648444652557373,0.9966692924499512,,,,,,,
9363908000.0,78.6,-1.2300000190734863,12495335936.0,1103.4137224093088,52.0,-0.006466822698712349,217088.0,448.3315875530243,5.662137425588298e-15,0.0,1.9332389831542969,-0.019332390278577805,0.09128022193908691,-0.019332390278577805,0.0,0.0,0.01999346725642681,0.4268549978733063,0.5873106575056444,-0.3626040518283844,0.5108917355537415,-0.34261059761047363,0.6644598245620728,3.712116241455078,0.9964911937713623,,,,,,,
9363908000.0,78.04,-1.1299999952316284,12495335936.0,1098.8783925090463,53.0,-0.008607270196080208,221184.0,452.05902457237244,5.7419347054832315e-15,0.0,1.934708595275879,-0.019347086548805237,0.06876195967197418,-0.019347084686160088,-2.7939677238464355e-09,0.0,0.008300346322357655,0.3707945644855499,0.584412750403791,-0.28830021619796753,0.4494501054286957,-0.27999985218048096,0.5751779079437256,3.7274370193481445,0.996525764465332,,,,,,,
9363908000.0,74.53,-1.1299999952316284,12495335936.0,1131.8128046422862,54.0,-0.009137356653809547,225280.0,455.6779975891113,6.630113125183357e-15,0.0,1.885155200958252,-0.018851540982723236,0.07155296206474304,-0.01885155215859413,1.1175870895385742e-08,0.0,0.0021095015108585358,0.37833371758461,0.5891525899013522,-0.2516498863697052,0.45897406339645386,-0.24954038858413696,0.5902483463287354,3.6189730167388916,0.9966626167297363,,,,,,,
9363908000.0,74.84,-1.2300000190734863,12495335936.0,1114.9364977176726,55.0,-0.006527561694383621,229376.0,459.351749420166,6.080205783298709e-15,0.0,1.908527135848999,-0.01908528245985508,0.07207508385181427,-0.019085271283984184,-1.1175870895385742e-08,0.0,0.004650971852242947,0.3796890079975128,0.5208764771378704,-0.24227067828178406,0.41843950748443604,-0.23761969804763794,0.5485348701477051,3.6737518310546875,0.9963526725769043,,,,,,,
9363908000.0,74.37,-1.1299999952316284,12495335936.0,1098.1516767395258,56.0,-0.007674808613955975,233472.0,463.08165311813354,5.280498260873401e-15,0.0,2.101994514465332,-0.02101994678378105,0.0725802332162857,-0.021019944921135902,-2.7939677238464355e-09,0.0,-0.01326347142457962,0.38081488013267517,0.5540317079279797,-0.18677523732185364,0.3679012060165405,-0.20003871619701385,0.5702455043792725,3.7299036979675293,0.9966611862182617,,,,,,,
9363908000.0,73.27,-1.0099999904632568,12495335936.0,1123.9830956365768,57.0,-0.006813300773501396,237568.0,466.7258360385895,5.584074869169342e-15,0.0,2.1093478202819824,-0.021093472838401794,0.05742312967777252,-0.021093478426337242,5.587935447692871e-09,0.0,-0.004081054590642452,0.33890655636787415,0.6647565965457005,-0.21597954630851746,0.4159890413284302,-0.2200605869293213,0.5853286981582642,3.6441829204559326,0.9967365264892578,,,,,,,
9363908000.0,78.03,-1.0099999904632568,12495335936.0,1123.4924574367724,58.0,-0.0072047836147248745,241664.0,470.3716104030609,5.0758008907081376e-15,0.0,2.099942684173584,-0.020999429747462273,0.06663534045219421,-0.020999426022171974,-3.725290298461914e-09,0.0,0.00033590104430913925,0.365106999874115,0.5867194678287848,-0.2194923311471939,0.4484453499317169,-0.219156414270401,0.5679337382316589,3.6457743644714355,0.9965267181396484,,,,,,,
9363908000.0,79.25,-0.9700000286102295,12495335936.0,1120.3053555698903,59.0,-0.0062127974815666676,245760.0,474.0277564525604,5.511216483178316e-15,0.0,2.0821409225463867,-0.020821409299969673,0.0610203742980957,-0.020821409299969673,0.0,0.0,-0.003107687458395958,0.34937214851379395,0.6789443862610423,-0.288994163274765,0.5226309895515442,-0.29210183024406433,0.6165923476219177,3.6561460494995117,0.9971375465393066,,,,,,,
9363908000.0,76.68,-0.699999988079071,12495335936.0,1130.747691476763,60.0,-0.0041985115967690945,249856.0,477.6501383781433,6.17735029795341e-15,0.0,2.025636672973633,-0.020256370306015015,0.06632180511951447,-0.020256366580724716,-3.725290298461914e-09,0.0,0.025955013930797577,0.3633210361003876,0.6944995817169086,-0.27796822786331177,0.5575481653213501,-0.2520132064819336,0.6573318243026733,3.6223819255828857,0.9966676235198975,,,,,,,
9363908000.0,75.38,-0.550000011920929,12495335936.0,1110.5774570969932,61.0,-0.004592100158333778,253952.0,481.33830976486206,6.2640864717522504e-15,0.0,1.9723725318908691,-0.019723720848560333,0.0432046540081501,-0.01972372457385063,2.7939677238464355e-09,0.0,0.033728115260601044,0.2920488715171814,0.7128177875061341,-0.1957399845123291,0.4657699465751648,-0.16201186180114746,0.544975221157074,3.68817138671875,0.9964885711669922,,,,,,,
9363908000.0,77.22,-0.6899999976158142,12495335936.0,1119.9729785882091,62.0,-0.005380177404731512,258048.0,484.99554085731506,8.036973864200547e-15,0.0,1.6740925312042236,-0.01674092933535576,0.04510030150413513,-0.01674092561006546,-3.725290298461914e-09,0.0,-0.008966853842139244,0.30023691058158875,0.5582927459267502,-0.10766160488128662,0.3071286678314209,-0.11662845313549042,0.4517486095428467,3.657231092453003,0.9965417385101318,,,,,,,
9363908000.0,77.37,-0.9100000262260437,12495335936.0,1092.5720992737138,63.0,-0.006414995063096285,262144.0,488.74449253082275,8.232997616985926e-15,0.0,1.5769016742706299,-0.015769027173519135,0.057474471628665924,-0.01576901599764824,-1.1175870895385742e-08,0.0,0.0029500755481421947,0.33906978368759155,0.5899735243113278,-0.1315944939851761,0.39330798387527466,-0.1286444067955017,0.5295209288597107,3.7489516735076904,0.9965999126434326,,,,,,,
,,,,,,,,,,,,,,,,,,,,,,,,,,0.005833230912685394,0.0980890691280365,0.06114897504448891,0.005833230912685394,0.0980890691280365,0.06114897504448891,
,,,,,,,,,,,,,,,,,,,,,,,,,,0.0022978466004133224,0.05687994137406349,0.04733443632721901,0.0022978466004133224,0.05687994137406349,0.04733443632721901,
,,,,,,,,,,,,,,,,,,,,,,,,,,0.002417587209492922,0.04936102032661438,0.04285670444369316,0.002417587209492922,0.04936102032661438,0.04285670444369316,
,,,,,,,,,,,,,,,,,,,,,,,,,,0.0023541529662907124,0.045032668858766556,0.03994659334421158,0.0023541529662907124,0.045032668858766556,0.03994659334421158,
,,,,,,,,,,,,,,,,,,,,,,,,,,0.0019191420869901776,0.04105090722441673,0.03658504784107208,0.0019191420869901776,0.04105090722441673,0.03658504784107208,
,,,,,,,,,,,,,,,,,,,,,,,,,,0.001814207062125206,0.03713606297969818,0.032835960388183594,0.001814207062125206,0.03713606297969818,0.032835960388183594,
,,,,,,,,,,,,,,,,,,,,,,,,,,,,,,,,-1.99
9385444000.0,74.05,-1.0800000429153442,12293103616.0,16.03404814049992,64.0,-0.009898273274302483,266240.0,744.2008790969849,8.493206138382448e-15,0.0,1.3967689275741577,-0.013967683538794518,0.044185228645801544,-0.013967689126729965,6.05359673500061e-09,0.0,-0.020437974482774734,0.2966044843196869,0.779508929416379,-0.25579994916915894,0.4313275218009949,-0.2762379050254822,0.6316583752632141,255.4563865661621,0.9968235492706299,,,,,,,
9385444000.0,73.13,-0.949999988079071,12495335936.0,1100.3867962058528,65.0,-0.0047756098210811615,270336.0,747.9232065677643,8.307590726452929e-15,0.0,1.2782745361328125,-0.0127827487885952,0.02802400290966034,-0.012782745063304901,-3.725290298461914e-09,0.0,0.006557350046932697,0.23668265342712402,0.8096824889920489,-0.212749183177948,0.39195516705513,-0.20619183778762817,0.5425341725349426,3.722327470779419,0.9966142177581787,,,,,,,
9385444000.0,73.86,-0.7400000095367432,12495335936.0,1104.264878523832,66.0,-0.005693472921848297,274432.0,751.6324615478516,7.426351200656711e-15,0.0,1.0163772106170654,-0.010163783095777035,0.032728008925914764,-0.01016377191990614,-1.1175870895385742e-08,0.0,0.036493606865406036,0.25325852632522583,0.7728584543673491,-0.21573267877101898,0.4453192949295044,-0.17923907935619354,0.5313929915428162,3.7092549800872803,0.9968230724334717,,,,,,,
9385444000.0,72.44,-1.090000033378601,12495335936.0,1067.8897879619685,67.0,-0.009592344984412193,278528.0,755.4680633544922,7.840950111415168e-15,0.0,1.0090049505233765,-0.010090053081512451,0.03827938064932823,-0.010090049356222153,-3.725290298461914e-09,0.0,0.0277688130736351,0.27532920241355896,0.8301964311898792,-0.2801360487937927,0.568278431892395,-0.25236719846725464,0.6681575179100037,3.835601806640625,0.996955156326294,,,,,,,
9385444000.0,72.11,-0.9599999785423279,12495335936.0,1090.233513804949,68.0,-0.0036426151636987925,282624.0,759.2250566482544,8.552186736565659e-15,0.0,1.0028889179229736,-0.01002888847142458,0.033004481345415115,-0.010028889402747154,9.313225746154785e-10,0.0,0.04661712050437927,0.25268831849098206,0.8023975323100128,-0.27378278970718384,0.4872826635837555,-0.22716565430164337,0.5684457421302795,3.756993293762207,0.996422290802002,,,,,,,
9385444000.0,72.95,-0.7599999904632568,12495335936.0,1120.8662642391223,69.0,-0.007696554996073246,286720.0,762.8793730735779,8.488001967954517e-15,0.0,1.1767072677612305,-0.011767063289880753,0.03166712820529938,-0.011767072603106499,9.313225746154785e-09,0.0,0.008688768371939659,0.25154364109039307,0.8535981160705053,-0.2612050473690033,0.5567017793655396,-0.2525162994861603,0.6574156880378723,3.6543164253234863,0.9966530799865723,,,,,,,
9385444000.0,75.71,-0.9300000071525574,12495335936.0,1101.2745127752662,70.0,-0.006278622429817915,290816.0,766.5987000465393,8.482797797526587e-15,0.0,1.3039166927337646,-0.013039168901741505,0.038293369114398956,-0.013039167039096355,-1.862645149230957e-09,0.0,0.047629185020923615,0.2726469337940216,0.8589730546014251,-0.3067566156387329,0.6721250414848328,-0.2591274380683899,0.7260215878486633,3.719326972961426,0.9967441558837891,,,,,,,
9385444000.0,77.26,-0.6399999856948853,12495335936.0,1113.6660560687808,71.0,-0.0032822834327816963,294912.0,770.2766427993774,7.964115478209521e-15,0.0,1.3079311847686768,-0.013079311698675156,0.02691534161567688,-0.013079311698675156,0.0,0.0,0.03344963118433952,0.22961854934692383,0.8559911714139401,-0.24455490708351135,0.5925019383430481,-0.21110528707504272,0.6050794124603271,3.6779427528381348,0.9973258972167969,,,,,,,
9385444000.0,78.34,-0.949999988079071,12495335936.0,1124.6422905904037,72.0,-0.0090752262622118,299008.0,773.9186897277832,7.939829349545846e-15,0.0,1.5629794597625732,-0.015629801899194717,0.04222360998392105,-0.01562979444861412,-7.450580596923828e-09,0.0,0.015626737847924232,0.290213018655777,0.8571248379572516,-0.315766304731369,0.7182955741882324,-0.30013957619667053,0.767782986164093,3.6420469284057617,0.9966371059417725,,,,,,,
9385444000.0,75.46,-1.1399999856948853,12495335936.0,1101.8158861896331,73.0,-0.006989065557718277,303104.0,777.6361892223358,7.126244039312724e-15,0.0,1.7600901126861572,-0.017600897699594498,0.06031898781657219,-0.017600901424884796,3.725290298461914e-09,0.0,-0.004138241056352854,0.34734752774238586,0.8139309872814566,-0.2823454737663269,0.7114160060882568,-0.2864837348461151,0.8052434325218201,3.7174994945526123,0.9967653751373291,,,,,,,
9385444000.0,77.16,-1.0499999523162842,12495335936.0,1093.8435928005697,74.0,-0.00502363545820117,307200.0,781.3807830810547,6.971853649950788e-15,0.0,1.810300588607788,-0.01810300163924694,0.03302177041769028,-0.01810300536453724,3.725290298461914e-09,0.0,0.004938211292028427,0.2569732964038849,0.805366440424125,-0.13927441835403442,0.49900567531585693,-0.1343362033367157,0.5824774503707886,3.744593858718872,0.9967479705810547,,,,,,,
9385444000.0,76.84,-1.190000057220459,12495335936.0,1089.9461902537766,75.0,-0.009794502519071102,311296.0,785.1387667655945,6.619704784327496e-15,0.0,1.9572479724884033,-0.019572483375668526,0.0419265516102314,-0.019572479650378227,-3.725290298461914e-09,0.0,-0.019111204892396927,0.2889779508113861,0.8762455605114878,-0.29807955026626587,0.7591294050216675,-0.3171907365322113,0.8214560747146606,3.757983684539795,0.9963359832763672,,,,,,,
9385444000.0,76.94,-1.1799999475479126,12495335936.0,1135.8748153280267,76.0,-0.005837806034833193,315392.0,788.7447979450226,6.144390551909851e-15,0.0,2.102543592453003,-0.021025443449616432,0.03936760127544403,-0.021025435999035835,-7.450580596923828e-09,0.0,0.001466420479118824,0.28062835335731506,0.862007703714921,-0.2192261964082718,0.7106696963310242,-0.21775978803634644,0.755447268486023,3.6060311794281006,0.9968030452728271,,,,,,,
9385444000.0,76.47,-0.6600000262260437,12495335936.0,1108.0478868662883,77.0,-0.0045259492471814156,319488.0,792.4413890838623,6.390721285498557e-15,0.0,2.2191123962402344,-0.022191129624843597,0.03508797287940979,-0.02219112403690815,-4.6566128730773926e-09,0.0,0.00041466113179922104,0.26493942737579346,0.7910226082227785,-0.13502368330955505,0.5811015367507935,-0.13460902869701385,0.5795580744743347,3.6965911388397217,0.9966075420379639,,,,,,,
9385444000.0,75.31,-0.5299999713897705,12495335936.0,1088.5459123395792,78.0,-0.002534210216253996,323584.0,796.204206943512,6.17214612752548e-15,0.0,2.2998147010803223,-0.02299814112484455,0.04436034709215164,-0.02299814671278,5.587935447692871e-09,0.0,0.011034120805561543,0.29769209027290344,0.8693585239608971,-0.2089872509241104,0.7721783518791199,-0.19795313477516174,0.8236197829246521,3.762817859649658,0.9968883991241455,,,,,,,
9385444000.0,74.5,-0.8700000047683716,12495335936.0,1117.3787463448332,79.0,-0.010542375966906548,327680.0,799.8699290752411,6.059389101586987e-15,0.0,2.351625919342041,-0.023516260087490082,0.06669040769338608,-0.023516258224844933,-9.313225746154785e-10,0.0,-0.03534696623682976,0.36354321241378784,0.8179881516017258,-0.22430071234703064,0.8075449466705322,-0.2596476674079895,0.852130651473999,3.665722131729126,0.9967381954193115,,,,,,,
9385444000.0,75.6,-1.4600000381469727,12495335936.0,1119.7775591218374,80.0,-0.01041753962635994,331776.0,803.5277984142303,6.003877950355729e-15,0.0,2.392254114151001,-0.023922525346279144,0.09645872563123703,-0.023922540247440338,1.4901161193847656e-08,0.0,-0.0792405754327774,0.43206942081451416,0.6626422099787019,-0.16958650946617126,0.5700437426567078,-0.24882708489894867,0.7438889741897583,3.657869338989258,0.996889591217041,,,,,,,
9385444000.0,77.53,-1.0,12495335936.0,1141.6514628500927,81.0,-0.002277615014463663,335872.0,807.1155834197998,6.2450045135165055e-15,0.0,2.4204750061035156,-0.02420475333929062,0.02753089740872383,-0.02420474961400032,-4.6566128730773926e-09,0.0,-0.0021738908253610134,0.23467108607292175,0.7931942655186748,-0.0951477438211441,0.44146379828453064,-0.09732164442539215,0.516033947467804,3.587785005569458,0.9971716403961182,,,,,,,
9385444000.0,76.92,-0.75,12495335936.0,1119.9845876430468,82.0,-0.009925782680511475,339968.0,810.7727766036987,6.690828446842545e-15,0.0,2.4371745586395264,-0.02437175251543522,0.04672298580408096,-0.024371745064854622,-7.450580596923828e-09,0.0,-0.006567811593413353,0.3056561052799225,0.8395832616516999,-0.19648149609565735,0.7073274850845337,-0.20304930210113525,0.7631469368934631,3.657193183898926,0.9965763092041016,,,,,,,
9385444000.0,75.51,-1.2599999904632568,12495335936.0,1083.1980072031324,83.0,-0.008995981886982918,344064.0,814.554172039032,6.609296443471635e-15,0.0,2.424100875854492,-0.02424100786447525,0.048670101910829544,-0.02424100786447525,4.656612873077393e-10,0.0,-0.01348298229277134,0.3117404878139496,0.783769883017721,-0.19065986573696136,0.5924692153930664,-0.20414283871650696,0.6704017519950867,3.781395435333252,0.9965941905975342,,,,,,,
9385444000.0,76.09,-1.1799999475479126,12495335936.0,1110.6191699887986,84.0,-0.003902196418493986,348160.0,818.2422049045563,6.347353198599137e-15,0.0,2.4500255584716797,-0.024500258266925812,0.041936978697776794,-0.024500254541635513,-4.190951585769653e-09,0.0,0.009177248924970627,0.2894998788833618,0.7802413957466103,-0.1476902812719345,0.5420014262199402,-0.13851302862167358,0.6175547242164612,3.688032865524292,0.997081995010376,,,,,,,
9385444000.0,77.6,-0.9200000166893005,12495335936.0,1109.467151675841,85.0,-0.009701160714030266,352256.0,821.9340672492981,6.526029716624748e-15,0.0,2.370055675506592,-0.023700546473264694,0.05407632887363434,-0.02370055578649044,9.313225746154785e-09,0.0,-0.02309860661625862,0.32809358835220337,0.8206650062166108,-0.2552757263183594,0.6803359985351562,-0.2783743739128113,0.7747565507888794,3.6918623447418213,0.9967598915100098,,,,,,,
9385444000.0,76.94,-1.1799999475479126,12495335936.0,1120.4103461748684,86.0,-0.005937474779784679,356352.0,825.5898706912994,6.423681031542117e-15,0.0,2.2784392833709717,-0.022784395143389702,0.03411991149187088,-0.022784391418099403,-3.725290298461914e-09,0.0,0.01848037913441658,0.2606047987937927,0.8556636156167621,-0.16257542371749878,0.6659346222877502,-0.1440950483083725,0.6859533190727234,3.6558034420013428,0.9965837001800537,,,,,,,
9385444000.0,76.42,-0.8999999761581421,12495335936.0,1130.6211108443579,87.0,-0.006082520820200443,360448.0,829.2126581668854,6.1287780406260595e-15,0.0,2.245070219039917,-0.022450696676969528,0.034032344818115234,-0.022450702264904976,5.587935447692871e-09,0.0,-0.008394766598939896,0.26078885793685913,0.8473318544870052,-0.1598067432641983,0.588540256023407,-0.1682015061378479,0.6674439311027527,3.6227874755859375,0.9967014789581299,,,,,,,
9385444000.0,75.58,-0.9700000286102295,12495335936.0,1096.9296834625034,88.0,-0.007449953816831112,364544.0,832.9467170238495,7.398595625041082e-15,0.0,2.1511967182159424,-0.021511951461434364,0.038239218294620514,-0.021511966362595558,1.4901161193847656e-08,0.0,-0.007665405049920082,0.27647486329078674,0.8839399666479092,-0.28125452995300293,0.7310835123062134,-0.28891992568969727,0.8115481734275818,3.7340588569641113,0.9967188835144043,,,,,,,
9385444000.0,74.9,-0.9399999976158142,12495335936.0,1105.8371578661506,89.0,-0.007734193932265043,368640.0,836.650698184967,6.853892453584365e-15,0.0,2.031264543533325,-0.02031264267861843,0.031597696244716644,-0.02031264454126358,1.862645149230957e-09,0.0,0.02447679452598095,0.2502230405807495,0.875578258748866,-0.24045239388942719,0.6947410106658936,-0.2159755975008011,0.7093803286552429,3.7039811611175537,0.9969329833984375,,,,,,,
9385444000.0,73.85,-0.9300000071525574,12495335936.0,1119.1643689747555,90.0,-0.007067826110869646,372736.0,840.3105716705322,6.737665980693919e-15,0.0,2.1431798934936523,-0.021431783214211464,0.03408066928386688,-0.021431798115372658,1.4435499906539917e-08,0.0,0.0382433757185936,0.25829261541366577,0.8627802060274872,-0.25439220666885376,0.6901953816413879,-0.21614883840084076,0.6972742676734924,3.6598734855651855,0.9968254566192627,,,,,,,
9385444000.0,75.34,-1.0099999904632568,12495335936.0,1132.7251592898642,91.0,-0.007895281538367271,376832.0,843.926629781723,7.89993070959838e-15,0.0,2.1051480770111084,-0.02105148509144783,0.026401851326227188,-0.021051479503512383,-5.587935447692871e-09,0.0,0.008914830163121223,0.22964560985565186,0.9076129415137519,-0.25465506315231323,0.7079667448997498,-0.24574024975299835,0.7555314898490906,3.616058111190796,0.9966599941253662,,,,,,,
9385444000.0,74.91,-0.9100000262260437,12495335936.0,1132.6563792378681,92.0,-0.005046272650361061,380928.0,847.5429074764252,7.757683384568281e-15,0.0,2.171001434326172,-0.021710019558668137,0.02296353504061699,-0.02171001397073269,-6.05359673500061e-09,0.0,0.031459834426641464,0.2120102047920227,0.8997548079734425,-0.21230661869049072,0.6230241060256958,-0.18084679543972015,0.6696146726608276,3.6162776947021484,0.996718168258667,,,,,,,
9385444000.0,74.24,-0.8899999856948853,12495335936.0,1125.3733188461704,93.0,-0.00956417340785265,385024.0,851.1825885772705,7.164407955784213e-15,0.0,2.287118911743164,-0.02287118509411812,0.04199521988630295,-0.022871188819408417,3.725290298461914e-09,0.0,-0.0019018156453967094,0.2898401618003845,0.8565912310514662,-0.2887961268424988,0.6824727058410645,-0.29069793224334717,0.7653687596321106,3.639681100845337,0.9971158504486084,,,,,,,
9385444000.0,75.4,-0.8199999928474426,12495335936.0,1111.0096712899592,94.0,-0.0031479401513934135,389120.0,854.8693251609802,7.842684834891145e-15,0.0,2.289900779724121,-0.022899014875292778,0.032672517001628876,-0.02289900742471218,-7.450580596923828e-09,0.0,0.0219422597438097,0.25471436977386475,0.6716591090527546,-0.07810104638338089,0.3620986044406891,-0.05615878477692604,0.44451960921287537,3.686736583709717,0.9968709945678711,,,,,,,
9385444000.0,74.81,-0.6800000071525574,12495335936.0,1110.388962520403,95.0,-0.004525941330939531,393216.0,858.5581226348877,7.554720737878995e-15,0.0,2.29830265045166,-0.02298302948474884,0.04155072569847107,-0.022983025759458542,-2.7939677238464355e-09,0.0,-0.011717917397618294,0.2880701422691345,0.7959919001400214,-0.129690483212471,0.5242481827735901,-0.14140838384628296,0.6377853155136108,3.6887974739074707,0.9965362548828125,,,,,,,
,,,,,,,,,,,,,,,,,,,,,,,,,,0.008014582097530365,0.05473669245839119,0.03762296214699745,0.008014582097530365,0.05473669245839119,0.03762296214699745,
,,,,,,,,,,,,,,,,,,,,,,,,,,0.004226448014378548,0.03524785861372948,0.030255891382694244,0.004226448014378548,0.03524785861372948,0.030255891382694244,
,,,,,,,,,,,,,,,,,,,,,,,,,,0.0032238659914582968,0.029733235016465187,0.026805434376001358,0.0032238659914582968,0.029733235016465187,0.026805434376001358,
,,,,,,,,,,,,,,,,,,,,,,,,,,0.00274024810642004,0.027127014473080635,0.024524571374058723,0.00274024810642004,0.027127014473080635,0.024524571374058723,
,,,,,,,,,,,,,,,,,,,,,,,,,,0.0026964021380990744,0.026339439675211906,0.023941827937960625,0.0026964021380990744,0.026339439675211906,0.023941827937960625,
,,,,,,,,,,,,,,,,,,,,,,,,,,0.0025127462577074766,0.02470589242875576,0.021961120888590813,0.0025127462577074766,0.02470589242875576,0.021961120888590813,
,,,,,,,,,,,,,,,,,,,,,,,,,,,,,,,,-0.97
9386000000.0,76.63,-1.0399999618530273,12293103616.0,16.0235672765885,96.0,-0.011652628891170025,397312.0,1114.1816008090973,7.469719287556131e-15,0.0,2.2654526233673096,-0.022654514759778976,0.03628675639629364,-0.022654525935649872,1.1175870895385742e-08,0.0,-0.03210383653640747,0.2675076127052307,0.9188092104283078,-0.335471510887146,0.8187756538391113,-0.36757534742355347,0.938821017742157,255.6234781742096,0.9968714714050293,,,,,,,
9386000000.0,74.11,-1.25,12495335936.0,1126.7808049657438,97.0,-0.00713737029582262,401408.0,1117.8167355060577,7.306655280814311e-15,0.0,2.0937018394470215,-0.020937005057930946,0.022135797888040543,-0.02093701809644699,1.30385160446167e-08,0.0,0.005042284727096558,0.2103734165430069,0.9154314899123437,-0.2182450145483017,0.6535243391990662,-0.21320272982120514,0.7234134078025818,3.635134696960449,0.9967243671417236,,,,,,,
9386000000.0,73.98,-0.6700000166893005,12495335936.0,1086.1276847014337,98.0,-0.004264253191649914,405504.0,1121.5879311561584,7.388187284185221e-15,0.0,2.0546092987060547,-0.020546089857816696,0.014114346355199814,-0.020546091720461845,1.862645149230957e-09,0.0,0.018126439303159714,0.1670536994934082,0.8951163356045742,-0.1041191816329956,0.4923686683177948,-0.08599274605512619,0.5158247947692871,3.771195650100708,0.9969635009765625,,,,,,,
9386000000.0,74.28,-0.8100000023841858,12495335936.0,1097.225536426345,99.0,-0.007306537590920925,409600.0,1125.320983171463,7.691763892481163e-15,0.0,1.8407002687454224,-0.018407002091407776,0.0147772915661335,-0.018407002091407776,0.0,0.0,0.006039594300091267,0.17182931303977966,0.9471294788012394,-0.23711924254894257,0.7225430607795715,-0.23107963800430298,0.7472922205924988,3.7330520153045654,0.996544599533081,,,,,,,
9386000000.0,73.78,-0.7699999809265137,12495335936.0,1106.3583040132198,100.0,-0.0038712876848876476,413696.0,1129.0232195854187,7.91554322088217e-15,0.0,1.901550054550171,-0.019015491008758545,0.009737834334373474,-0.01901550032198429,9.313225746154785e-09,0.0,0.020625900477170944,0.1380394548177719,0.956660081476976,-0.14319923520088196,0.6649127006530762,-0.12257333844900131,0.6630697250366211,3.7022364139556885,0.9976465702056885,,,,,,,
9386000000.0,73.98,-0.5199999809265137,12495335936.0,1098.0997350606485,101.0,-0.003882523626089096,417792.0,1132.7532997131348,7.834011217511261e-15,0.0,1.8279958963394165,-0.018279962241649628,0.025535736232995987,-0.01827995851635933,-3.725290298461914e-09,0.0,-0.01896374672651291,0.22522041201591492,0.9141824653155782,-0.229951411485672,0.7199847102165222,-0.2489151656627655,0.7688112854957581,3.7300801277160645,0.9967060089111328,,,,,,,
9386000000.0,73.28,-0.8199999928474426,12495335936.0,1098.9797567410894,102.0,-0.007635476533323526,421888.0,1136.4803929328918,7.807990365371609e-15,0.0,1.8742618560791016,-0.01874261535704136,0.019237671047449112,-0.018742617219686508,1.862645149230957e-09,0.0,0.013451332226395607,0.19571344554424286,0.9612671611553544,-0.32407182455062866,0.9804568290710449,-0.3106204867362976,0.9944455623626709,3.72709321975708,0.9966897964477539,,,,,,,
9386000000.0,72.98,-1.0,12495335936.0,1098.5690730883953,103.0,-0.007091315928846598,425984.0,1140.2088794708252,8.305856002976952e-15,0.0,1.829197645187378,-0.01829196885228157,0.019965216517448425,-0.018291976302862167,7.450580596923828e-09,0.0,0.011651488021016121,0.199510395526886,0.9310374660577663,-0.2240513116121292,0.7526643872261047,-0.21239982545375824,0.7597293257713318,3.7284865379333496,0.996711015701294,,,,,,,
9386000000.0,75.32,-0.9399999976158142,12495335936.0,1129.609485109819,104.0,-0.007379928603768349,430080.0,1143.8349113464355,9.34495536508706e-15,0.0,1.7924022674560547,-0.017924029380083084,0.021503550931811333,-0.017924021929502487,-8.381903171539307e-09,0.0,0.008973505347967148,0.20721259713172913,0.9506106899998428,-0.30058926343917847,0.9540125131607056,-0.2916157841682434,0.9323944449424744,3.6260318756103516,0.9967727661132812,,,,,,,
9386000000.0,75.17,-0.8799999952316284,12495335936.0,1104.7488088170687,105.0,-0.0061366138979792595,434176.0,1147.5425415039062,7.445433158892456e-15,0.0,1.942703127861023,-0.01942703127861023,0.020809829235076904,-0.01942703127861023,0.0,0.0,0.008461743593215942,0.20385830104351044,0.9283023173603807,-0.20848171412944794,0.7529283165931702,-0.2000199854373932,0.761335015296936,3.707630157470703,0.9966678619384766,,,,,,,
9386000000.0,74.4,-0.8100000023841858,12495335936.0,1079.933216119666,106.0,-0.006846170872449875,438272.0,1151.3353686332703,7.528699885739343e-15,0.0,1.9825801849365234,-0.019825801253318787,0.01395421102643013,-0.019825801253318787,9.313225746154785e-10,0.0,0.00896473228931427,0.16683779656887054,0.9518556474679488,-0.19685456156730652,0.7388583421707153,-0.18788982927799225,0.7603643536567688,3.7928271293640137,0.9967846870422363,,,,,,,
9386000000.0,73.68,-0.8799999952316284,12495335936.0,1083.0053781901859,107.0,-0.006159505341202021,442368.0,1155.1174366474152,7.912073773930217e-15,0.0,1.9023284912109375,-0.019023284316062927,0.014133261516690254,-0.019023284316062927,0.0,0.0,0.004928779322654009,0.16807477176189423,0.9527301623984493,-0.24621619284152985,0.741882860660553,-0.24128741025924683,0.7730550765991211,3.7820680141448975,0.9971718788146973,,,,,,,
9386000000.0,73.87,-1.3300000429153442,12495335936.0,1128.1212890650265,108.0,-0.015245387330651283,446464.0,1158.748251914978,8.756884106730922e-15,0.0,1.8723692893981934,-0.01872370019555092,0.02770370990037918,-0.01872369274497032,-6.51925802230835e-09,0.0,-0.012996242381632328,0.23505745828151703,0.9322663105466065,-0.3393456041812897,0.8442651033401489,-0.3523418605327606,0.9031745195388794,3.630815267562866,0.9968852996826172,,,,,,,
9386000000.0,73.07,-1.409999966621399,12495335936.0,1099.4566021719745,109.0,-0.007421817164868116,450560.0,1162.4737286567688,7.664008316865534e-15,0.0,2.112287759780884,-0.021122880280017853,0.020045287907123566,-0.021122876554727554,-3.725290298461914e-09,0.0,0.01002708449959755,0.19999951124191284,0.9131440782602772,-0.13979491591453552,0.652026355266571,-0.12976782023906708,0.6786239743232727,3.7254767417907715,0.9968492984771729,,,,,,,
9386000000.0,75.68,-0.7200000286102295,12495335936.0,1104.598294083468,110.0,-0.0021047235932201147,454656.0,1166.1818640232086,7.880848751362635e-15,0.0,2.189379930496216,-0.021893806755542755,0.014544119127094746,-0.021893799304962158,-8.381903171539307e-09,0.0,-0.009488401003181934,0.1703093945980072,0.9279522368648012,-0.10192378610372543,0.5879531502723694,-0.1114121824502945,0.634495198726654,3.7081353664398193,0.9968287944793701,,,,,,,
9386000000.0,76.57,-0.5899999737739563,12495335936.0,1108.4191322083116,111.0,-0.007865441963076591,458752.0,1169.877217054367,7.202571872255703e-15,0.0,2.2515809535980225,-0.022515801712870598,0.02980022504925728,-0.022515809163451195,7.450580596923828e-09,0.0,0.0017269181553274393,0.24415574967861176,0.9214728014545587,-0.25345832109451294,0.8027175664901733,-0.25173136591911316,0.8712782859802246,3.6953530311584473,0.9966766834259033,,,,,,,
9386000000.0,76.01,-1.1299999952316284,12495335936.0,1131.2708346873458,112.0,-0.008997700177133083,462848.0,1173.4979238510132,7.641456911677835e-15,0.0,2.373256206512451,-0.023732567206025124,0.03397110849618912,-0.023732561618089676,-5.587935447692871e-09,0.0,-0.026303714141249657,0.25935834646224976,0.870711998635211,-0.17223325371742249,0.6681172251701355,-0.1985369622707367,0.7213085889816284,3.620706796646118,0.9969429969787598,,,,,,,
9386000000.0,78.46,-1.0800000429153442,12495335936.0,1118.3157219398095,113.0,-0.0073199523612856865,466944.0,1177.1605746746063,7.958911307781591e-15,0.0,2.437047004699707,-0.024370472878217697,0.02858569473028183,-0.0243704691529274,-3.725290298461914e-09,0.0,0.0037527799140661955,0.23910513520240784,0.9240024700100393,-0.2380896508693695,0.8662720322608948,-0.23433686792850494,0.867339551448822,3.6626508235931396,0.9966940879821777,,,,,,,
9386000000.0,76.99,-0.8999999761581421,12495335936.0,1123.3324587227758,114.0,-0.007467776536941528,471040.0,1180.806868314743,6.888586923103901e-15,0.0,2.4961235523223877,-0.024961227551102638,0.03729730844497681,-0.024961235001683235,7.450580596923828e-09,0.0,-0.011948737315833569,0.2728919982910156,0.8915399455536903,-0.18491940200328827,0.8114030361175537,-0.19686812162399292,0.8286209106445312,3.6462936401367188,0.996992826461792,,,,,,,
9386000000.0,74.39,-0.9200000166893005,12495335936.0,1120.3713285794358,115.0,-0.0071917385794222355,475136.0,1184.4627990722656,7.37257477290143e-15,0.0,2.5330653190612793,-0.02533065341413021,0.07242349535226822,-0.02533065341413021,0.0,0.0,-0.02870434895157814,0.3795500099658966,0.7278049366662955,-0.1221286728978157,0.6485734581947327,-0.15083302557468414,0.7274931073188782,3.655930757522583,0.9966082572937012,,,,,,,
9386000000.0,74.92,-1.350000023841858,12495335936.0,1112.1041341329496,116.0,-0.01142926886677742,479232.0,1188.1459074020386,6.787972961497246e-15,0.0,2.547165632247925,-0.025471670553088188,0.07667239755392075,-0.025471655651926994,-1.4901161193847656e-08,0.0,-0.09032571315765381,0.38107940554618835,0.7259811109198301,-0.13202160596847534,0.6378806233406067,-0.22234731912612915,0.7279897928237915,3.683108329772949,0.9966716766357422,,,,,,,
9386000000.0,75.13,-0.9800000190734863,12495335936.0,1113.5541694430112,117.0,-0.0024022951256483793,483328.0,1191.8242197036743,7.70911112724093e-15,0.0,2.5507524013519287,-0.025507530197501183,0.06520626693964005,-0.025507522746920586,-7.450580596923828e-09,0.0,0.06179837882518768,0.3558432459831238,0.7676692867053252,-0.21397528052330017,0.78877192735672,-0.1521769016981125,0.7382532954216003,3.678312301635742,0.9967339038848877,,,,,,,
9386000000.0,76.57,-0.7099999785423279,12495335936.0,1110.9583740515395,118.0,-0.0076423995196819305,487424.0,1195.5111265182495,7.402065071993036e-15,0.0,2.548928737640381,-0.025489281862974167,0.05059393122792244,-0.025489287450909615,4.6566128730773926e-09,0.0,-0.02586407959461212,0.3170858919620514,0.7856928797090839,-0.15832972526550293,0.6016814112663269,-0.18419381976127625,0.684949517250061,3.6869068145751953,0.9969828128814697,,,,,,,
9386000000.0,79.54,-1.2799999713897705,12495335936.0,1124.361639080438,119.0,-0.011756709776818752,491520.0,1199.1540825366974,7.5842110369706e-15,0.0,2.5281660556793213,-0.02528165839612484,0.0805833488702774,-0.02528166025876999,1.862645149230957e-09,0.0,-0.07001131772994995,0.3953520953655243,0.7491805608535483,-0.2850514352321625,0.6606654524803162,-0.3550627827644348,0.7894114851951599,3.642956018447876,0.9967937469482422,,,,,,,
9386000000.0,77.37,-1.2699999809265137,12495335936.0,1125.2079200307726,120.0,-0.007799549959599972,495616.0,1202.7942986488342,7.846154281843098e-15,0.0,2.5167834758758545,-0.025167830288410187,0.04753375053405762,-0.025167834013700485,3.725290298461914e-09,0.0,0.02400001883506775,0.30743223428726196,0.7936329629903007,-0.24387985467910767,0.6139971613883972,-0.21987980604171753,0.6767514944076538,3.640216112136841,0.9965932369232178,,,,,,,
9386000000.0,75.92,-0.6399999856948853,12495335936.0,1111.4359664064305,121.0,-0.0014203926548361778,499712.0,1206.4796211719513,7.787173683659887e-15,0.0,2.496577739715576,-0.024965785443782806,0.041934456676244736,-0.02496577613055706,-9.313225746154785e-09,0.0,0.053439367562532425,0.2846628427505493,0.7125845430945094,-0.1420803964138031,0.459638386964798,-0.08864101767539978,0.5309770107269287,3.6853225231170654,0.9970204830169678,,,,,,,
9386000000.0,73.1,-0.5899999737739563,12495335936.0,1128.3065896364974,122.0,-0.0071054077707231045,503808.0,1210.1098401546478,8.049116928532385e-15,0.0,2.465137481689453,-0.024651378393173218,0.056180983781814575,-0.02465137466788292,-3.725290298461914e-09,0.0,0.01426487136632204,0.3349415957927704,0.7819765540019548,-0.24683254957199097,0.5961893200874329,-0.2325676828622818,0.7173275351524353,3.630218982696533,0.9969851970672607,,,,,,,
9386000000.0,76.04,-0.7599999904632568,12495335936.0,1120.8874719580265,123.0,-0.0051238276064395905,507904.0,1213.7640874385834,8.427286646295329e-15,0.0,2.416341781616211,-0.024163417518138885,0.033596623688936234,-0.024163417518138885,0.0,0.0,0.035314686596393585,0.2568311095237732,0.8404450002702349,-0.19668984413146973,0.5575181245803833,-0.16137515008449554,0.6429725289344788,3.654247283935547,0.996995210647583,,,,,,,
9386000000.0,79.06,-0.5199999809265137,12495335936.0,1114.5455453941704,124.0,-0.004560268484055996,512000.0,1217.439127922058,9.01362318117549e-15,0.0,2.3159801959991455,-0.023159809410572052,0.032940641045570374,-0.023159801959991455,-7.450580596923828e-09,0.0,0.015430617146193981,0.25624051690101624,0.8564550000705635,-0.23330655694007874,0.5990992188453674,-0.21787595748901367,0.6763224601745605,3.6750404834747314,0.9968583583831787,,,,,,,
9386000000.0,75.71,-0.7900000214576721,12495335936.0,1114.4634115567621,125.0,-0.008703967556357384,516096.0,1221.1144392490387,9.72485980632598e-15,0.0,2.249141216278076,-0.022491414099931717,0.03764624893665314,-0.022491412237286568,-2.3283064365386963e-09,0.0,-0.018087238073349,0.27383142709732056,0.8800078171144163,-0.31749415397644043,0.6480206251144409,-0.33558136224746704,0.790509045124054,3.675311326980591,0.9969947338104248,,,,,,,
9386000000.0,76.04,-0.6800000071525574,12495335936.0,1109.0813853087172,126.0,-0.0025711399503052235,520192.0,1224.8075857162476,1.0607834055598175e-14,0.0,2.138962745666504,-0.02138962224125862,0.045195579528808594,-0.02138962782919407,6.51925802230835e-09,0.0,0.053596217185258865,0.2958715558052063,0.8144069893615137,-0.23802697658538818,0.6162870526313782,-0.18443076312541962,0.6867875456809998,3.6931464672088623,0.9968397617340088,,,,,,,
9386000000.0,76.55,-0.6700000166893005,12495335936.0,1104.0211922272974,127.0,-0.0064360518008470535,524288.0,1228.5176594257355,9.816800150552751e-15,0.0,2.2491190433502197,-0.02249118685722351,0.03147532045841217,-0.02249119058251381,3.725290298461914e-09,0.0,0.010722143575549126,0.25070109963417053,0.8927257415416355,-0.25426095724105835,0.6693262457847595,-0.24353881180286407,0.7654352188110352,3.710073709487915,0.9967665672302246,,,,,,,
,,,,,,,,,,,,,,,,,,,,,,,,,,0.013217243365943432,0.053256209939718246,0.04036455228924751,0.013217243365943432,0.053256209939718246,0.04036455228924751,
,,,,,,,,,,,,,,,,,,,,,,,,,,0.005790607072412968,0.037170685827732086,0.03212929144501686,0.005790607072412968,0.037170685827732086,0.03212929144501686,
,,,,,,,,,,,,,,,,,,,,,,,,,,0.0052187503315508366,0.033664826303720474,0.030261119827628136,0.0052187503315508366,0.033664826303720474,0.030261119827628136,
,,,,,,,,,,,,,,,,,,,,,,,,,,0.004240764770656824,0.030096670612692833,0.02626108191907406,0.004240764770656824,0.030096670612692833,0.02626108191907406,
,,,,,,,,,,,,,,,,,,,,,,,,,,0.0042522442527115345,0.029362181201577187,0.025361044332385063,0.0042522442527115345,0.029362181201577187,0.025361044332385063,
,,,,,,,,,,,,,,,,,,,,,,,,,,0.003500977996736765,0.02624848671257496,0.0241999551653862,0.003500977996736765,0.02624848671257496,0.0241999551653862,
,,,,,,,,,,,,,,,,,,,,,,,,,,,,,,,,-1.48
9386000000.0,75.0,-0.6200000047683716,12293103616.0,16.020790750643275,128.0,-0.002579596359282732,528384.0,1484.1854391098022,9.506284648352903e-15,0.0,2.242410182952881,-0.02242409624159336,0.01247265562415123,-0.02242410182952881,5.587935447692871e-09,0.0,-0.0029133176431059837,0.15793325006961823,0.948239879928574,-0.13309776782989502,0.6602684259414673,-0.13601107895374298,0.6941861510276794,255.66777968406677,0.9966261386871338,,,,,,,
9386000000.0,76.08,-0.6299999952316284,12495335936.0,1083.1704845774705,129.0,-0.007029933854937553,532480.0,1487.9669306278229,9.802922362744937e-15,0.0,2.182377815246582,-0.02182377688586712,0.02367216721177101,-0.02182377688586712,0.0,0.0,0.007843922823667526,0.217472642660141,0.9231148821011932,-0.2665717601776123,0.7432118058204651,-0.2587278187274933,0.784302294254303,3.78149151802063,0.9965915679931641,,,,,,,
9386000000.0,74.47,-0.8600000143051147,12495335936.0,1108.2546040169052,130.0,-0.00732194259762764,536576.0,1491.6628322601318,1.0640793801641735e-14,0.0,2.193871021270752,-0.021938713267445564,0.010602114722132683,-0.021938709542155266,-3.259629011154175e-09,0.0,0.0020058415830135345,0.1456206738948822,0.9689172003468134,-0.19627326726913452,0.7873099446296692,-0.1942674219608307,0.82596755027771,3.69590163230896,0.9968006610870361,,,,,,,
9386000000.0,74.24,-0.9100000262260437,12495335936.0,1109.759986026478,131.0,-0.0073294504545629025,540672.0,1495.3537204265594,9.488937413593135e-15,0.0,2.1599531173706055,-0.021599527448415756,0.025202598422765732,-0.021599531173706055,3.725290298461914e-09,0.0,0.02130892314016819,0.2235247790813446,0.9234336206290701,-0.22485236823558807,0.8082733154296875,-0.20354345440864563,0.8078051805496216,3.6908881664276123,0.9968667030334473,,,,,,,
9386000000.0,74.92,-0.949999988079071,12495335936.0,1088.5523267856433,132.0,-0.005326305981725454,544768.0,1499.1165161132812,9.115971866258121e-15,0.0,2.2018630504608154,-0.02201863005757332,0.016051430255174637,-0.02201863005757332,0.0,0.0,0.008098852820694447,0.17901143431663513,0.9510896772244573,-0.22413557767868042,0.8252390027046204,-0.21603670716285706,0.8094322681427002,3.7627956867218018,0.9965214729309082,,,,,,,
9386000000.0,75.69,-0.4399999976158142,12495335936.0,1115.6965466720915,133.0,-0.001153473393060267,548864.0,1502.787765264511,9.325873406851315e-15,0.0,2.308976650238037,-0.02308977022767067,0.017718954011797905,-0.02308976650238037,-3.725290298461914e-09,0.0,0.0020292941480875015,0.18826164305210114,0.9032580212459549,-0.02717597596347332,0.5775918960571289,-0.02514668181538582,0.6052772402763367,3.6712491512298584,0.9965736865997314,,,,,,,
9386000000.0,76.48,-0.25999999046325684,12495335936.0,1117.9342541633118,134.0,-0.00346530694514513,552960.0,1506.451665878296,8.999745393367675e-15,0.0,2.312494993209839,-0.023124951869249344,0.014190235175192356,-0.023124950006604195,-1.862645149230957e-09,0.0,0.007174643687903881,0.16833274066448212,0.9511404191858731,-0.14701077342033386,0.7521624565124512,-0.1398361325263977,0.7615417838096619,3.66390061378479,0.9966518878936768,,,,,,,
9386000000.0,79.14,-0.5099999904632568,12495335936.0,1112.5168608783188,135.0,-0.0027469038031995296,557056.0,1510.133407831192,9.122910760162029e-15,0.0,2.401597499847412,-0.024015983566641808,0.030917707830667496,-0.02401597425341606,-9.313225746154785e-09,0.0,0.018674630671739578,0.24799533188343048,0.8746218019440981,-0.16097909212112427,0.6834262013435364,-0.1423044502735138,0.7003780007362366,3.681741952896118,0.9967982769012451,,,,,,,
9386000000.0,77.68,-0.6800000071525574,12495335936.0,1123.1615646217365,136.0,-0.009408149868249893,561152.0,1513.7802562713623,9.277301149523964e-15,0.0,2.423257827758789,-0.024232566356658936,0.04413291811943054,-0.02423257753252983,1.1408701539039612e-08,0.0,-0.04765535891056061,0.29328450560569763,0.8747596341286472,-0.21450775861740112,0.7549907565116882,-0.2621631324291229,0.8287374973297119,3.646848440170288,0.9964325428009033,,,,,,,
9386000000.0,72.3,-0.6499999761581421,12495335936.0,1109.101719798617,137.0,-0.0011598237324506044,565248.0,1517.4733350276947,9.249545573908335e-15,0.0,2.3994240760803223,-0.023994240909814835,0.031566716730594635,-0.023994240909814835,0.0,0.0,0.03284098207950592,0.24913862347602844,0.786063991435045,-0.03899669274687767,0.5497499704360962,-0.006155714392662048,0.5386406183242798,3.6930787563323975,0.9966316223144531,,,,,,,
9386000000.0,75.67,-0.07000000029802322,12495335936.0,1104.6854441473731,138.0,-1.7462298274040222e-10,569344.0,1521.181177854538,9.25821919128822e-15,0.0,2.4167423248291016,-0.024167418479919434,0.018993575125932693,-0.024167422205209732,3.725290298461914e-09,0.0,0.0051544480957090855,0.19485855102539062,0.8231033887923812,0.024353409186005592,0.4292159974575043,0.02950785681605339,0.4632972478866577,3.7078428268432617,0.9964709281921387,,,,,,,
9386000000.0,78.06,-0.3400000035762787,12495335936.0,1116.307102190896,139.0,-0.003927356563508511,573440.0,1524.8504190444946,8.854028621385623e-15,0.0,2.454822540283203,-0.024548228830099106,0.02859668619930744,-0.024548225104808807,-3.725290298461914e-09,0.0,-0.0033209132961928844,0.23915748298168182,0.854308881273354,-0.043339505791664124,0.5767229795455933,-0.046660415828228,0.6265668869018555,3.669241189956665,0.9966318607330322,,,,,,,
9386000000.0,76.57,-0.4399999976158142,12495335936.0,1132.26029109197,140.0,-0.0033514825627207756,577536.0,1528.4679617881775,8.741271595447131e-15,0.0,2.5094878673553467,-0.0250948928296566,0.04838640242815018,-0.025094877928495407,-1.4901161193847656e-08,0.0,-0.004467328079044819,0.3110891580581665,0.7402153558561443,-0.06821897625923157,0.5852034687995911,-0.07268629968166351,0.6103489398956299,3.6175427436828613,0.9969191551208496,,,,,,,
9386000000.0,76.0,-0.3199999928474426,12495335936.0,1106.7979353616065,141.0,-0.002334335818886757,581632.0,1532.1687276363373,8.458511668862911e-15,0.0,2.5312018394470215,-0.025312021374702454,0.05283227562904358,-0.025312017649412155,-3.725290298461914e-09,0.0,-0.00830418337136507,0.32499441504478455,0.6983344196003634,-0.029717136174440384,0.5486989617347717,-0.03802132233977318,0.5917156338691711,3.70076584815979,0.9964189529418945,,,,,,,
9386000000.0,76.95,-0.5,12495335936.0,1101.6800867243012,142.0,-0.003651210805401206,585728.0,1535.886685371399,7.802786194943678e-15,0.0,2.567599058151245,-0.025675982236862183,0.07175714522600174,-0.02567598968744278,8.381903171539307e-09,0.0,-0.04075624793767929,0.37668004631996155,0.5916905911097132,0.0037845810875296593,0.44481363892555237,-0.03697166591882706,0.5894919633865356,3.7179577350616455,0.9965255260467529,,,,,,,
9386000000.0,78.89,-0.3100000023841858,12495335936.0,1094.4888172078906,143.0,0.001462577492929995,589824.0,1539.629071712494,8.087280845003875e-15,0.0,2.5527045726776123,-0.025527050718665123,0.0582103505730629,-0.025527045130729675,-5.587935447692871e-09,0.0,0.03336681053042412,0.3396108150482178,0.6912247687043731,-0.04719461128115654,0.5345275402069092,-0.013827800750732422,0.6111675500869751,3.7423863410949707,0.9966633319854736,,,,,,,
9386000000.0,78.07,0.05999999865889549,12495335936.0,1130.193580609467,144.0,-0.0024864294100552797,593920.0,1543.2532296180725,7.532169332691296e-15,0.0,2.5686981678009033,-0.025686973705887794,0.09243357181549072,-0.02568698115646839,7.450580596923828e-09,0.0,-0.021311935037374496,0.4294857382774353,0.7132992549315299,-0.10918448865413666,0.6552281379699707,-0.13049642741680145,0.8021107316017151,3.6241579055786133,0.9962825775146484,,,,,,,
9386000000.0,77.83,-0.28999999165534973,12495335936.0,1118.4857270238626,145.0,-0.004682946018874645,598016.0,1546.9153237342834,8.578207588705311e-15,0.0,2.58713960647583,-0.02587139420211315,0.08177811652421951,-0.0258713960647583,1.862645149230957e-09,0.0,-0.05455314368009567,0.4007734954357147,0.6200609856471869,-0.020301785320043564,0.477355420589447,-0.07485492527484894,0.6501926183700562,3.6620941162109375,0.9965653419494629,,,,,,,
9386000000.0,82.33,-0.8700000047683716,12495335936.0,1133.6495336032644,146.0,-0.007171045523136854,602112.0,1550.5284333229065,8.201772594418344e-15,0.0,2.585542678833008,-0.025855418294668198,0.08865330368280411,-0.025855425745248795,7.450580596923828e-09,0.0,-0.057736169546842575,0.4171518087387085,0.6558908388059628,-0.06693020462989807,0.5434440970420837,-0.12466638535261154,0.7111250758171082,3.613109588623047,0.9969358444213867,,,,,,,
9386000000.0,85.11,-1.0,12495335936.0,1101.0722964575773,147.0,-0.007912391796708107,606208.0,1554.248443365097,8.245140681317764e-15,0.0,2.5618014335632324,-0.025618014857172966,0.10487016290426254,-0.025618012994527817,-1.862645149230957e-09,0.0,-0.07408694922924042,0.4519970715045929,0.578835818695216,-0.11748742312192917,0.5839751362800598,-0.191574364900589,0.6964819431304932,3.7200100421905518,0.9965145587921143,,,,,,,
9386000000.0,82.58,-0.6399999856948853,12495335936.0,1097.6984757784726,148.0,-0.0029306826181709766,610304.0,1557.979887008667,8.84535500400574e-15,0.0,2.5750296115875244,-0.025750311091542244,0.12458368390798569,-0.02575029619038105,-1.4901161193847656e-08,0.0,-0.00044107064604759216,0.4992274045944214,0.40723690713415805,-0.09070178866386414,0.410707950592041,-0.09114286303520203,0.648422122001648,3.7314436435699463,0.9965119361877441,,,,,,,
9386000000.0,84.51,-0.5600000023841858,12495335936.0,1103.1783454844408,149.0,-0.0023459712974727154,614400.0,1561.6927952766418,9.605163886483581e-15,0.0,2.5515971183776855,-0.02551596611738205,0.106063112616539,-0.025515969842672348,2.7939677238464355e-09,0.0,0.02156004309654236,0.4601229131221771,0.31140017646273943,-0.1509268581867218,0.4307801425457001,-0.12936681509017944,0.5544857382774353,3.7129082679748535,0.9970433712005615,,,,,,,
9386000000.0,84.25,-0.8199999928474426,12495335936.0,1112.603895943673,150.0,-0.010701621882617474,618496.0,1565.3742492198944,9.584347204771859e-15,0.0,2.543565034866333,-0.025435665622353554,0.11455309391021729,-0.02543564885854721,-1.6763806343078613e-08,0.0,-0.0824940875172615,0.471545547246933,0.5808482012036817,-0.13347822427749634,0.4516352117061615,-0.21597230434417725,0.7283463478088379,3.6814539432525635,0.9964320659637451,,,,,,,
9386000000.0,82.58,-1.1100000143051147,12495335936.0,1086.0955499519566,151.0,-0.00528000621125102,622592.0,1569.1455564498901,9.756084828893563e-15,0.0,2.5185816287994385,-0.02518581598997116,0.06606636941432953,-0.02518581598997116,0.0,0.0,0.01655331440269947,0.3631679117679596,0.748361419739594,-0.23644888401031494,0.5886348485946655,-0.21989555656909943,0.7239671349525452,3.7713072299957275,0.9966385364532471,,,,,,,
9386000000.0,81.18,-0.4399999976158142,12495335936.0,1086.6075287927888,152.0,0.0001468706177547574,626688.0,1572.9150867462158,1.0623446566881967e-14,0.0,2.495852470397949,-0.024958515539765358,0.03942088782787323,-0.024958524852991104,9.313225746154785e-09,0.0,0.04780057072639465,0.2767229378223419,0.6237641427100875,-0.10432909429073334,0.392953485250473,-0.056528523564338684,0.4511438310146332,3.7695302963256836,0.9965660572052002,,,,,,,
9386000000.0,79.89,0.07999999821186066,12495335936.0,1059.3067828830012,153.0,0.0005884213605895638,630784.0,1576.7817664146423,9.861902960928148e-15,0.0,2.484837532043457,-0.024848386645317078,0.030280429869890213,-0.024848375469446182,-1.1175870895385742e-08,0.0,0.04295150190591812,0.2423435002565384,0.7873619630588597,-0.1516696810722351,0.44819045066833496,-0.10871817916631699,0.5255461931228638,3.8666796684265137,0.9967021942138672,,,,,,,
9386000000.0,80.43,-0.15000000596046448,12495335936.0,1125.5145064725439,154.0,-0.004417626652866602,634880.0,1580.4209909439087,1.1206313654810174e-14,0.0,2.4565629959106445,-0.024565627798438072,0.04886326938867569,-0.02456562966108322,1.862645149230957e-09,0.0,0.024696554988622665,0.31167343258857727,0.787137979220571,-0.20146997272968292,0.5695022344589233,-0.17677342891693115,0.6755393743515015,3.6392245292663574,0.9972243309020996,,,,,,,
9386000000.0,80.47,-0.3799999952316284,12495335936.0,1131.2942258579612,155.0,-0.002507429802790284,638976.0,1584.041622877121,1.1109169140155473e-14,0.0,2.4182145595550537,-0.024182148277759552,0.04628922790288925,-0.024182144552469254,-3.725290298461914e-09,0.0,0.03756628930568695,0.3019759953022003,0.8031031573644617,-0.22083395719528198,0.5954740047454834,-0.18326765298843384,0.6805390119552612,3.6206319332122803,0.9963893890380859,,,,,,,
9386000000.0,81.51,-0.33000001311302185,12495335936.0,1119.4520601430524,156.0,-0.0031008117366582155,643072.0,1587.7005558013916,1.1036310754164447e-14,0.0,2.397139549255371,-0.02397138811647892,0.06795468926429749,-0.023971395567059517,7.450580596923828e-09,0.0,0.03364083170890808,0.3671656548976898,0.668354263187146,-0.2025882601737976,0.5656108260154724,-0.16894742846488953,0.6375654339790344,3.65893292427063,0.9965498447418213,,,,,,,
9386000000.0,76.67,-0.12999999523162842,12495335936.0,1120.5143333006351,157.0,0.001478420803323388,647168.0,1591.3560199737549,1.1391929066739692e-14,0.0,2.39292049407959,-0.023929208517074585,0.0650034248828888,-0.023929204791784286,-3.725290298461914e-09,0.0,0.05578399822115898,0.35626673698425293,0.463714793225699,-0.10773593187332153,0.4307081401348114,-0.05195193365216255,0.4864938259124756,3.6554641723632812,0.996497392654419,,,,,,,
9386000000.0,76.83,-0.3199999928474426,12495335936.0,1111.9897540820464,158.0,-0.004881816916167736,651264.0,1595.03950715065,1.1752751549742868e-14,0.0,2.3909189701080322,-0.023909183219075203,0.0986739918589592,-0.02390918880701065,5.587935447692871e-09,0.0,-0.029630817472934723,0.44330349564552307,0.616193698256102,-0.1375335156917572,0.5157365798950195,-0.16716432571411133,0.7155584692955017,3.6834871768951416,0.9964759349822998,,,,,,,
9386000000.0,76.64,-0.3400000035762787,12495335936.0,1068.8849444231591,159.0,0.00059268600307405,655360.0,1598.8715379238129,1.2314801955959354e-14,0.0,2.3628649711608887,-0.023628633469343185,0.07576383650302887,-0.02362864837050438,1.4901161193847656e-08,0.0,0.03191740810871124,0.3880021870136261,0.509132312619067,-0.15181350708007812,0.49884745478630066,-0.11989609897136688,0.5537987351417542,3.832030773162842,0.9965038299560547,,,,,,,
,,,,,,,,,,,,,,,,,,,,,,,,,,0.011546238325536251,0.0736437737941742,0.05847346782684326,0.011546238325536251,0.0736437737941742,0.05847346782684326,
,,,,,,,,,,,,,,,,,,,,,,,,,,0.005340618081390858,0.052201684564352036,0.04856117069721222,0.005340618081390858,0.052201684564352036,0.04856117069721222,
,,,,,,,,,,,,,,,,,,,,,,,,,,0.005341819021850824,0.04741224646568298,0.04452618211507797,0.005341819021850824,0.04741224646568298,0.04452618211507797,
,,,,,,,,,,,,,,,,,,,,,,,,,,0.005149920471012592,0.043668877333402634,0.040302474051713943,0.005149920471012592,0.043668877333402634,0.040302474051713943,
,,,,,,,,,,,,,,,,,,,,,,,,,,0.004263361915946007,0.041687097400426865,0.03844105452299118,0.004263361915946007,0.041687097400426865,0.03844105452299118,
,,,,,,,,,,,,,,,,,,,,,,,,,,0.0040779137052595615,0.03962981328368187,0.03658232092857361,0.0040779137052595615,0.03962981328368187,0.03658232092857361,
,,,,,,,,,,,,,,,,,,,,,,,,,,,,,,,,-0.57
9386000000.0,78.55,-0.20999999344348907,12293103616.0,15.993393155316483,160.0,-0.0025222066324204206,659456.0,1854.9772911071777,1.1886325257393082e-14,0.0,2.331815719604492,-0.023318160325288773,0.0425371453166008,-0.023318156599998474,-2.7939677238464355e-09,0.0,0.030056964606046677,0.29015758633613586,0.8779801137462019,-0.2581966817378998,0.7520028948783875,-0.2281397134065628,0.8306511044502258,256.10575318336487,0.9974215030670166,,,,,,,
9386000000.0,80.35,0.10999999940395355,12495335936.0,1112.9510909335904,161.0,0.0008914931677281857,663552.0,1858.6575965881348,1.1853365511349523e-14,0.0,2.37426495552063,-0.023742634803056717,0.04767260327935219,-0.02374264970421791,1.4901161193847656e-08,0.0,0.02736731618642807,0.30760258436203003,0.7062228036175893,-0.05738687887787819,0.4892500340938568,-0.03001956082880497,0.5675196647644043,3.6803054809570312,0.9964935779571533,,,,,,,
9386000000.0,78.27,0.10000000149011612,12495335936.0,1106.3878014084462,162.0,-0.0007432792335748672,667648.0,1862.3597342967987,1.189326415129699e-14,0.0,2.280575752258301,-0.02280576527118683,0.04283548891544342,-0.02280575782060623,-6.51925802230835e-09,0.0,0.03437183052301407,0.2907063663005829,0.8218830015850918,-0.13820898532867432,0.5829771161079407,-0.10383714735507965,0.6888138651847839,3.7021377086639404,0.9967713356018066,,,,,,,
9386000000.0,76.78,-0.41999998688697815,12495335936.0,1097.013245929191,163.0,-0.004609792958945036,671744.0,1866.093508720398,1.1613973671664723e-14,0.0,2.308500289916992,-0.02308500185608864,0.03792265057563782,-0.02308500185608864,0.0,0.0,0.017917010933160782,0.27485033869743347,0.8874441774380802,-0.2190602421760559,0.7462304830551147,-0.20114323496818542,0.8192422389984131,3.733774423599243,0.9967706203460693,,,,,,,
9386000000.0,78.15,-0.46000000834465027,12495335936.0,1118.555782697464,164.0,-0.003127127420157194,675840.0,1869.7553734779358,1.136070404417211e-14,0.0,2.406522750854492,-0.024065237492322922,0.04512462019920349,-0.024065226316452026,-1.1175870895385742e-08,0.0,-0.004767989739775658,0.30041393637657166,0.69350659652063,-0.02182765305042267,0.4249477684497833,-0.026595640927553177,0.5426371097564697,3.661864757537842,0.996516227722168,,,,,,,
9386000000.0,79.81,-0.029999999329447746,12495335936.0,1111.124927740758,165.0,0.002835056046023965,679936.0,1873.4417276382446,1.1836018276589755e-14,0.0,2.4317517280578613,-0.02431752160191536,0.02791484259068966,-0.024317516013979912,-4.6566128730773926e-09,0.0,0.02395642176270485,0.23509415984153748,0.5922767199678947,0.041182756423950195,0.33175334334373474,0.06513917446136475,0.3681790828704834,3.686354160308838,0.9966344833374023,,,,,,,
9386000000.0,77.4,0.10000000149011612,12495335936.0,1067.4771342854829,166.0,-0.00044825897202827036,684032.0,1877.2788121700287,1.144744021797095e-14,0.0,2.3980278968811035,-0.023980285972356796,0.04088492691516876,-0.0239802785217762,-7.450580596923828e-09,0.0,0.017669394612312317,0.2854427099227905,0.7892114797164139,-0.018008269369602203,0.5514167547225952,-0.0003388756886124611,0.6217209100723267,3.8370845317840576,0.9965758323669434,,,,,,,
9386000000.0,78.38,-0.07999999821186066,12495335936.0,1103.1782038067258,167.0,-0.0002989326312672347,688128.0,1880.9917209148407,1.1815201594878033e-14,0.0,2.4283711910247803,-0.024283703416585922,0.055061083287000656,-0.02428371086716652,7.450580596923828e-09,0.0,0.015019578859210014,0.33154699206352234,0.7165803234468398,0.04690411314368248,0.4787246882915497,0.061923690140247345,0.6227734088897705,3.7129087448120117,0.9966070652008057,,,,,,,
9386000000.0,80.16,0.14000000059604645,12495335936.0,1100.6176692891634,168.0,0.0023962953127920628,692224.0,1884.7132675647736,1.115427195053087e-14,0.0,2.4658379554748535,-0.024658378213644028,0.03531503304839134,-0.024658378213644028,0.0,0.0,0.005802811123430729,0.2657322585582733,0.40680883456229755,0.11332264542579651,0.2805477976799011,0.11912545561790466,0.3450221121311188,3.7215466499328613,0.9965832233428955,,,,,,,
9386000000.0,80.33,0.4099999964237213,12495335936.0,1105.2221425930124,169.0,0.00149943504948169,696320.0,1888.4193098545074,1.0848960618758952e-14,0.0,2.4070487022399902,-0.024070486426353455,0.05809907242655754,-0.024070486426353455,0.0,0.0,-0.005871308036148548,0.3408695459365845,0.6230667519161748,0.15048037469387054,0.44129833579063416,0.14460906386375427,0.5552083253860474,3.7060422897338867,0.9964959621429443,,,,,,,
9386000000.0,77.05,0.11999999731779099,12495335936.0,1104.5321771703675,170.0,-0.0021014451049268246,700416.0,1892.1276671886444,1.1343356809412342e-14,0.0,2.4863743782043457,-0.02486373670399189,0.059713199734687805,-0.024863744154572487,7.450580596923828e-09,0.0,-0.04619860649108887,0.34252113103866577,0.6630148146602689,0.13353799283504486,0.4296107888221741,0.087339386343956,0.5900406837463379,3.708357334136963,0.9967708587646484,,,,,,,
9386000000.0,78.83,-0.2800000011920929,12495335936.0,1117.8772237418368,171.0,-0.002851285506039858,704512.0,1895.7917547225952,1.140927630149946e-14,0.0,2.479494571685791,-0.02479494735598564,0.12254033982753754,-0.024794945493340492,-1.862645149230957e-09,0.0,-0.09302398562431335,0.48629721999168396,0.3762019065780452,0.12184184789657593,0.414029061794281,0.028817858546972275,0.6157150268554688,3.6640875339508057,0.9969160556793213,,,,,,,
9386000000.0,83.67,-0.4699999988079071,12495335936.0,1074.4477361626589,172.0,-0.0013520170468837023,708608.0,1899.6039457321167,1.2035511476327088e-14,0.0,2.467170476913452,-0.02467169612646103,0.07517756521701813,-0.024671703577041626,7.450580596923828e-09,0.0,-0.029808014631271362,0.3866563141345978,0.6533742619068605,0.07047082483768463,0.5498964786529541,0.04066280648112297,0.6567418575286865,3.8121910095214844,0.9968361854553223,,,,,,,
9386000000.0,82.41,-0.2199999988079071,12495335936.0,1115.8323451083986,173.0,-0.003154743928462267,712704.0,1903.2747480869293,1.1402337407595553e-14,0.0,2.460536479949951,-0.024605359882116318,0.14435279369354248,-0.024605363607406616,3.725290298461914e-09,0.0,-0.0593387745320797,0.5340918898582458,0.389896886148167,0.028241289779543877,0.4682510197162628,-0.03109748288989067,0.6837767958641052,3.670802354812622,0.9969391822814941,,,,,,,
9386000000.0,85.45,-0.5699999928474426,12495335936.0,1119.5799460460019,174.0,-0.0048044463619589806,716800.0,1906.9332630634308,1.116468029138673e-14,0.0,2.461594581604004,-0.024615934118628502,0.11154112964868546,-0.024615945294499397,1.1175870895385742e-08,0.0,-0.03427572548389435,0.47112804651260376,0.6038241664081105,-0.045351702719926834,0.5524507761001587,-0.07962743192911148,0.7485054731369019,3.658514976501465,0.9967331886291504,,,,,,,
9386000000.0,84.65,-0.5,12495335936.0,1132.8291293601148,175.0,-0.0004509679274633527,720896.0,1910.5489892959595,1.1270498423421316e-14,0.0,2.4167280197143555,-0.024167275056242943,0.058811627328395844,-0.02416727878153324,3.725290298461914e-09,0.0,-0.01889990083873272,0.3424831032752991,0.6457761371141841,-0.049299873411655426,0.4543616473674774,-0.0681997761130333,0.5754402875900269,3.6157262325286865,0.9967279434204102,,,,,,,
9386000000.0,84.2,-0.15000000596046448,12495335936.0,1136.2919999010533,176.0,-0.0024068127386271954,724992.0,1914.1536965370178,1.2784912017949068e-14,0.0,2.309546709060669,-0.023095473647117615,0.05787881463766098,-0.023095466196537018,-7.450580596923828e-09,0.0,0.02514871023595333,0.3393424153327942,0.7990626903952363,-0.21293672919273376,0.654911458492279,-0.1877880096435547,0.757020890712738,3.6047072410583496,0.9966206550598145,,,,,,,
9386000000.0,90.23,0.15000000596046448,12495335936.0,1118.7301589286155,177.0,0.004214811138808727,729088.0,1917.8149905204773,1.3015630240253984e-14,0.0,2.31024169921875,-0.0231024082750082,0.07946844398975372,-0.0231024157255888,7.450580596923828e-09,0.0,0.05414595454931259,0.39502301812171936,0.6866532434453761,-0.07092441618442535,0.4645524024963379,-0.01677846536040306,0.7056832313537598,3.6612939834594727,0.9968397617340088,,,,,,,
9386000000.0,90.46,0.6899999976158142,12495335936.0,1125.8260555354955,178.0,0.005121029447764158,733184.0,1921.4532079696655,1.3574211199518516e-14,0.0,2.238694667816162,-0.0223869439214468,0.031571805477142334,-0.02238694578409195,1.862645149230957e-09,0.0,0.08138951659202576,0.23776701092720032,0.7636121570529707,0.007621737662702799,0.4237319231033325,0.08901125192642212,0.48903393745422363,3.6382174491882324,0.9968080520629883,,,,,,,
9386000000.0,87.13,0.6600000262260437,12495335936.0,1117.9079932591847,179.0,0.004828980658203363,737280.0,1925.1171946525574,1.4432899320127035e-14,0.0,2.12068510055542,-0.021206842735409737,0.03132561594247818,-0.021206850185990334,7.450580596923828e-09,0.0,0.06234968453645706,0.24244195222854614,0.5298934978326509,-0.012415205128490925,0.3588607609272003,0.049934472888708115,0.3535979092121124,3.6639866828918457,0.9966855049133301,,,,,,,
9386000000.0,82.38,0.44999998807907104,12495335936.0,1129.3478784105102,180.0,0.0030221249908208847,741376.0,1928.744066476822,1.3846562785246874e-14,0.0,2.108926296234131,-0.021089263260364532,0.04211687296628952,-0.021089263260364532,0.0,0.0,0.03559981286525726,0.2880740463733673,0.821336429393738,-0.05797291174530983,0.5884183049201965,-0.022373098880052567,0.6815317869186401,3.6268718242645264,0.9968533515930176,,,,,,,
9386000000.0,81.34,0.4300000071525574,12495335936.0,1124.976929546572,181.0,0.0027230933774262667,745472.0,1932.3850300312042,1.4741680098850907e-14,0.0,2.097871780395508,-0.02097872458398342,0.042528197169303894,-0.020978717133402824,-7.450580596923828e-09,0.0,0.04526541009545326,0.2881453037261963,0.5719787757267051,0.0051543861627578735,0.3578893840312958,0.050419799983501434,0.44043198227882385,3.640963554382324,0.9967291355133057,,,,,,,
9386000000.0,87.72,0.11999999731779099,12495335936.0,1123.7057129685784,182.0,-0.0006054462864995003,749568.0,1936.030112504959,1.4394735403655545e-14,0.0,2.1414859294891357,-0.021414857357740402,0.05047944188117981,-0.02141485922038555,1.862645149230957e-09,0.0,0.011714805848896503,0.317562997341156,0.7251793866829693,-0.0376289002597332,0.4607522487640381,-0.02591409534215927,0.6057664752006531,3.645082473754883,0.9966747760772705,,,,,,,
9386000000.0,85.45,-0.019999999552965164,12495335936.0,1112.3074705417562,183.0,0.00030316843185573816,753664.0,1939.7125475406647,1.7165088794790506e-14,0.0,2.00961971282959,-0.02009619027376175,0.037383001297712326,-0.020096195861697197,5.587935447692871e-09,0.0,0.014039547182619572,0.2731063961982727,0.7120724772165533,0.005207553505897522,0.4155721664428711,0.01924710161983967,0.5089677572250366,3.6824350357055664,0.996753454208374,,,,,,,
9386000000.0,80.58,0.1899999976158142,12495335936.0,1091.711116042277,184.0,0.0009110040264204144,757760.0,1943.4644558429718,1.4812803761365956e-14,0.0,2.044114351272583,-0.020441144704818726,0.027318453416228294,-0.020441142842173576,-1.862645149230957e-09,0.0,0.0034299087710678577,0.23374876379966736,0.5610139711154909,0.06812093406915665,0.32994261384010315,0.07155083864927292,0.3527962863445282,3.751908302307129,0.9967303276062012,,,,,,,
9386000000.0,82.0,0.38999998569488525,12495335936.0,1130.082214041306,185.0,0.004865624010562897,761856.0,1947.088970899582,1.4802395420510095e-14,0.0,2.1693480014801025,-0.021693482995033264,0.038306064903736115,-0.021693479269742966,-3.725290298461914e-09,0.0,0.054002705961465836,0.27150291204452515,0.46232050267228364,0.12609989941120148,0.33593443036079407,0.18010260164737701,0.37026506662368774,3.6245150566101074,0.9965980052947998,,,,,,,
9386000000.0,84.07,0.5600000023841858,12495335936.0,1122.8748261507903,186.0,0.005481460597366095,765952.0,1950.7367506027222,1.362104873336989e-14,0.0,2.2346091270446777,-0.02234608680009842,0.038480520248413086,-0.022346090525388718,3.725290298461914e-09,0.0,0.033806562423706055,0.2753846049308777,0.6313155375893769,0.14718176424503326,0.45895421504974365,0.1809883415699005,0.4535364806652069,3.647779703140259,0.996861457824707,,,,,,,
9386000000.0,82.53,0.5699999928474426,12495335936.0,1121.6063028747876,187.0,0.0022862583864480257,770048.0,1954.3886559009552,1.1924489173864572e-14,0.0,2.34287691116333,-0.0234287790954113,0.06428893655538559,-0.023428767919540405,-1.1175870895385742e-08,0.0,0.022881608456373215,0.3578904867172241,0.5786473807634327,0.10041336715221405,0.424451619386673,0.12329496443271637,0.5513497591018677,3.6519052982330322,0.996593713760376,,,,,,,
9386000000.0,81.5,0.23000000417232513,12495335936.0,1125.7935206878585,188.0,0.0003051714738830924,774144.0,1958.0269784927368,1.0619977119930013e-14,0.0,2.473546028137207,-0.024735456332564354,0.07293221354484558,-0.024735460057854652,3.725290298461914e-09,0.0,-0.02695602737367153,0.3810160756111145,0.4656641447947524,0.15979841351509094,0.3805201053619385,0.13284237682819366,0.5212380886077881,3.638322591781616,0.9967772960662842,,,,,,,
9386000000.0,83.25,0.09000000357627869,12495335936.0,1105.4143636113865,189.0,0.002902139211073518,778240.0,1961.7323763370514,1.041527974976475e-14,0.0,2.463317394256592,-0.024633172899484634,0.09841789305210114,-0.024633172899484634,0.0,0.0,-0.023930154740810394,0.44307005405426025,0.22346564731868557,0.22701790928840637,0.40124475955963135,0.20308777689933777,0.5027962923049927,3.705397844314575,0.9969792366027832,,,,,,,
9386000000.0,84.43,0.4000000059604645,12495335936.0,1102.5268711846054,190.0,0.002599010244011879,782336.0,1965.4474785327911,1.0486403412279799e-14,0.0,2.4878921508789062,-0.02487892098724842,0.15143194794654846,-0.02487892098724842,0.0,0.0,-0.006160637363791466,0.5503634214401245,0.2502359659366262,0.22617962956428528,0.47067996859550476,0.22001898288726807,0.6356049180030823,3.715102195739746,0.9969067573547363,,,,,,,
9386000000.0,88.93,0.3199999928474426,12495335936.0,1102.781224127291,191.0,-5.820766091346741e-11,786432.0,1969.1617238521576,9.598224992579674e-15,0.0,2.5600714683532715,-0.02560071088373661,0.14002062380313873,-0.02560071460902691,3.725290298461914e-09,0.0,-0.06843099743127823,0.5248101353645325,0.207397590776219,0.24797573685646057,0.2647966742515564,0.17954474687576294,0.5894873738288879,3.714245319366455,0.9967451095581055,,,,,,,
,,,,,,,,,,,,,,,,,,,,,,,,,,0.008015306666493416,0.07606161385774612,0.06432043761014938,0.008015306666493416,0.07606161385774612,0.06432043761014938,
,,,,,,,,,,,,,,,,,,,,,,,,,,0.005558385048061609,0.059408340603113174,0.05540204420685768,0.005558385048061609,0.059408340603113174,0.05540204420685768,
,,,,,,,,,,,,,,,,,,,,,,,,,,0.004439705051481724,0.05329761654138565,0.05019321292638779,0.004439705051481724,0.05329761654138565,0.05019321292638779,
,,,,,,,,,,,,,,,,,,,,,,,,,,0.0038401451893150806,0.049977973103523254,0.04588193818926811,0.0038401451893150806,0.049977973103523254,0.04588193818926811,
,,,,,,,,,,,,,,,,,,,,,,,,,,0.004078431520611048,0.04695278778672218,0.043437838554382324,0.004078431520611048,0.04695278778672218,0.043437838554382324,
,,,,,,,,,,,,,,,,,,,,,,,,,,0.004205416887998581,0.04453234747052193,0.04257268086075783,0.004205416887998581,0.04453234747052193,0.04257268086075783,
,,,,,,,,,,,,,,,,,,,,,,,,,,,,,,,,0.0
9386536000.0,84.28,0.09000000357627869,12293103616.0,16.02333670704241,192.0,-0.0009187670657411218,790528.0,2224.7888803482056,8.867906409193438e-15,0.0,2.5481743812561035,-0.02548173815011978,0.07977737486362457,-0.02548174373805523,5.587935447692871e-09,0.0,-0.0015988615341484547,0.399488627910614,0.431768158321031,0.07672280818223953,0.4531525671482086,0.07512394338846207,0.5299582481384277,255.62715649604797,0.9969770908355713,,,,,,,
9386536000.0,82.81,-0.23000000417232513,12495335936.0,1081.5367976811372,193.0,-0.0027592130936682224,794624.0,2228.5760838985443,8.836681386625855e-15,0.0,2.573715925216675,-0.025737151503562927,0.09627983719110489,-0.025737158954143524,6.51925802230835e-09,0.0,-0.053222984075546265,0.4356297552585602,0.4191332655468184,0.07319197058677673,0.3741827607154846,0.019968977198004723,0.5715829730033875,3.787203550338745,0.996945858001709,,,,,,,
9386536000.0,87.83,-0.029999999329447746,12495335936.0,1075.38487766997,194.0,-0.0003068717196583748,798720.0,2232.3849527835846,8.840150833577809e-15,0.0,2.5872974395751953,-0.0258729699999094,0.08619527518749237,-0.0258729737251997,3.725290298461914e-09,0.0,-0.01380276121199131,0.41502058506011963,0.6211413988959448,0.05077546834945679,0.46865421533584595,0.03697270527482033,0.6742657423019409,3.808868885040283,0.996840238571167,,,,,,,
9386536000.0,86.5,-0.2199999988079071,12495335936.0,1107.460036793996,195.0,-0.0010748859494924545,802816.0,2236.0835061073303,8.921682836948719e-15,0.0,2.584987163543701,-0.025849871337413788,0.09410232305526733,-0.025849871337413788,0.0,0.0,-0.03209584578871727,0.43268948793411255,0.517082239982624,0.05734957009553909,0.35377416014671326,0.025253722444176674,0.6226440072059631,3.6985533237457275,0.9984054565429688,,,,,,,
9386536000.0,84.61,-0.07999999821186066,12495335936.0,1095.16845253368,196.0,0.002458986360579729,806912.0,2239.8235700130463,9.5513874587283e-15,0.0,2.5305986404418945,-0.025305986404418945,0.07489731162786484,-0.025305986404418945,0.0,0.0,0.03122103214263916,0.38581886887550354,0.47461999105888675,0.027739573270082474,0.3358341157436371,0.058960601687431335,0.5322880744934082,3.7400639057159424,0.9966459274291992,,,,,,,
9386536000.0,85.12,0.28999999165534973,12495335936.0,1110.6097645709167,197.0,0.0032306767534464598,811008.0,2243.5116341114044,1.0259154636926837e-14,0.0,2.481387138366699,-0.02481386996805668,0.06304822862148285,-0.02481386996805668,0.0,0.0,0.06249497830867767,0.34960073232650757,0.37475098069416124,0.010553606785833836,0.3856252431869507,0.07304859161376953,0.44212573766708374,3.6880640983581543,0.9967942237854004,,,,,,,
9386536000.0,83.67,0.41999998688697815,12495335936.0,1104.9317689146883,198.0,0.003387702163308859,815104.0,2247.218650341034,1.0335482469869817e-14,0.0,2.4731407165527344,-0.024731406942009926,0.047417785972356796,-0.024731406942009926,0.0,0.0,0.052417248487472534,0.3034971058368683,0.7741738242303241,-0.04906725883483887,0.5156116485595703,0.0033499877899885178,0.6386566162109375,3.7070162296295166,0.9980552196502686,,,,,,,
9386536000.0,82.44,0.4300000071525574,12495335936.0,1120.327126534674,199.0,0.004315934609621763,819200.0,2250.874725341797,9.678022272474607e-15,0.0,2.497917652130127,-0.024979183450341225,0.051009245216846466,-0.024979175999760628,-7.450580596923828e-09,0.0,0.04061786085367203,0.31684884428977966,0.6078110579569996,0.0546574741601944,0.34421929717063904,0.09527533501386642,0.5059463381767273,3.6560750007629395,0.9970934391021729,,,,,,,
9386536000.0,84.33,0.5,12495335936.0,1104.2900764575647,200.0,0.0026236712001264095,823296.0,2254.5838956832886,1.119243586700236e-14,0.0,2.439605236053467,-0.02439604140818119,0.028260361403226852,-0.024396052584052086,1.1175870895385742e-08,0.0,0.03993340581655502,0.23439167439937592,0.778005849211336,0.006192726083099842,0.4364476799964905,0.04612612724304199,0.49747520685195923,3.709170341491699,0.9968972206115723,,,,,,,
9386536000.0,80.02,0.3100000023841858,12495335936.0,1107.53935656244,201.0,-0.0006180079653859138,827392.0,2258.282184123993,1.0630385460785874e-14,0.0,2.484557628631592,-0.024845585227012634,0.06149553880095482,-0.024845575913786888,-9.313225746154785e-09,0.0,-0.026895882561802864,0.3497106432914734,0.43281696843814155,0.0594768188893795,0.31288084387779236,0.03258093446493149,0.46435195207595825,3.6982884407043457,0.9967586994171143,,,,,,,
9386536000.0,82.68,0.20999999344348907,12495335936.0,1105.8804374504948,202.0,0.004175480455160141,831488.0,2261.9860203266144,9.403935963270271e-15,0.0,2.476362705230713,-0.024763623252511024,0.04893288016319275,-0.024763626977801323,3.725290298461914e-09,0.0,0.048009827733039856,0.30916687846183777,0.47465877642050125,0.11496105790138245,0.3627227544784546,0.1629708707332611,0.4265522062778473,3.70383620262146,0.9968841075897217,,,,,,,
9386536000.0,86.17,0.30000001192092896,12495335936.0,1107.6493949628648,203.0,0.002012362238019705,835584.0,2265.6839413642883,9.913944665207453e-15,0.0,2.510032892227173,-0.02510031871497631,0.0734519511461258,-0.025100328028202057,9.778887033462524e-09,0.0,0.010124658234417439,0.3831934630870819,0.5434018516054057,0.04596428573131561,0.45184049010276794,0.056088946759700775,0.5670887231826782,3.69792103767395,0.9968819618225098,,,,,,,
9386536000.0,83.38,0.27000001072883606,12495335936.0,1100.8963263681353,204.0,0.002013401361182332,839680.0,2269.404546022415,9.58955137519979e-15,0.0,2.5379152297973633,-0.025379151105880737,0.08733735978603363,-0.025379151105880737,0.0,0.0,-0.006503636948764324,0.41794145107269287,0.63664331303937,0.07516634464263916,0.5683261156082153,0.06866270303726196,0.6933441758155823,3.720604658126831,0.997251033782959,,,,,,,
9386536000.0,85.91,0.25999999046325684,12495335936.0,1060.916012481605,205.0,0.0006199415074661374,843776.0,2273.265360593796,9.10035935497433e-15,0.0,2.5614235401153564,-0.025614243000745773,0.08592459559440613,-0.025614235550165176,-7.450580596923828e-09,0.0,-0.009592045098543167,0.4144865870475769,0.2837742926885569,0.11422359943389893,0.3579762578010559,0.10463155806064606,0.48976248502731323,3.8608145713806152,0.9968905448913574,,,,,,,
9386536000.0,83.35,0.20999999344348907,12495335936.0,1079.8256290833574,206.0,0.0032578804530203342,847872.0,2277.0585656166077,9.730063976753911e-15,0.0,2.536451578140259,-0.02536451444029808,0.06477227061986923,-0.02536451444029808,0.0,0.0,0.04063764214515686,0.35766515135765076,0.5967329052521599,0.11728222668170929,0.4407382309436798,0.15791985392570496,0.5632228255271912,3.7932050228118896,0.9971005916595459,,,,,,,
9386536000.0,78.32,0.28999999165534973,12495335936.0,1098.458021991962,207.0,0.002328509697690606,851968.0,2280.7874290943146,9.971190539914687e-15,0.0,2.538038730621338,-0.025380386039614677,0.06518219411373138,-0.025380386039614677,0.0,0.0,0.0005108276382088661,0.3611038029193878,0.5306100181837076,0.13926884531974792,0.35529428720474243,0.1397796869277954,0.5270662307739258,3.728863477706909,0.9973583221435547,,,,,,,
9386536000.0,79.35,0.28999999165534973,12495335936.0,1122.8321142102807,208.0,0.00015532021643593907,856064.0,2284.435347557068,9.853229343548264e-15,0.0,2.519455909729004,-0.025194544345140457,0.08000250160694122,-0.02519455924630165,1.3969838619232178e-08,0.0,-0.021866101771593094,0.3994569182395935,0.4665355906063685,0.1729472279548645,0.3534032106399536,0.1510811150074005,0.5469117164611816,3.647918462753296,0.9964864253997803,,,,,,,
9386536000.0,81.66,0.17000000178813934,12495335936.0,1121.9765055808307,209.0,0.0013989009894430637,860160.0,2288.086047887802,1.0500281200087613e-14,0.0,2.529484748840332,-0.02529485896229744,0.07542121410369873,-0.025294847786426544,-1.0244548320770264e-08,0.0,-0.022966235876083374,0.38775208592414856,0.48608031978475863,0.18125230073928833,0.34615880250930786,0.15828606486320496,0.5408869981765747,3.650700330734253,0.996802806854248,,,,,,,
9386536000.0,85.07,-0.11999999731779099,12495335936.0,1130.523571563049,210.0,-0.0006219922797754407,864256.0,2291.7091479301453,1.032854357596591e-14,0.0,2.519007682800293,-0.025190072134137154,0.07241778075695038,-0.025190075859427452,3.725290298461914e-09,0.0,-0.0032898355275392532,0.38060495257377625,0.622764034714512,0.1074928417801857,0.4121338725090027,0.1042030081152916,0.6196805238723755,3.6231000423431396,0.9970929622650146,,,,,,,
9386536000.0,87.66,0.10000000149011612,12495335936.0,1105.0770433033333,211.0,0.0026456573978066444,868352.0,2295.415676832199,1.1705914015891494e-14,0.0,2.5002429485321045,-0.025002436712384224,0.06707252562046051,-0.025002429261803627,-7.450580596923828e-09,0.0,0.002397815929725766,0.36629506945610046,0.6360418358392372,0.12028057128190994,0.4739941954612732,0.12267838418483734,0.6071630120277405,3.706528902053833,0.9969546794891357,,,,,,,
9386536000.0,87.21,0.4399999976158142,12495335936.0,1088.9081365255277,212.0,0.004829215817153454,872448.0,2299.1772429943085,1.1383255449359808e-14,0.0,2.5029478073120117,-0.025029484182596207,0.059864770621061325,-0.02502947673201561,-7.450580596923828e-09,0.0,0.038139648735523224,0.3439531922340393,0.4761626849194851,0.1739656925201416,0.34837210178375244,0.21210533380508423,0.4752269983291626,3.761566162109375,0.996584415435791,,,,,,,
9386536000.0,84.47,0.4099999964237213,12495335936.0,1131.2244276803638,213.0,0.0021830997429788113,876544.0,2302.7980983257294,1.0510689540943474e-14,0.0,2.5142054557800293,-0.02514205127954483,0.08244575560092926,-0.02514205314218998,2.7939677238464355e-09,0.0,0.0007183505222201347,0.40611732006073,0.3886597163986917,0.2249068319797516,0.4251997768878937,0.2256252020597458,0.5194095969200134,3.6208553314208984,0.9969186782836914,,,,,,,
9386536000.0,81.75,0.44999998807907104,12495335936.0,1125.1102809011795,214.0,0.005306311883032322,880640.0,2306.4386303424835,1.038232000372119e-14,0.0,2.524625778198242,-0.02524624951183796,0.06497631967067719,-0.025246256962418556,7.450580596923828e-09,0.0,0.011760414578020573,0.36034154891967773,0.4805710635194137,0.24902665615081787,0.3788936734199524,0.26078706979751587,0.4999784231185913,3.6405320167541504,0.9968564510345459,,,,,,,
9386536000.0,81.71,0.5699999928474426,12495335936.0,1103.2195752456705,215.0,0.0035916222259402275,884736.0,2310.1513998508453,1.041007557933682e-14,0.0,2.5161147117614746,-0.025161147117614746,0.06663738191127777,-0.025161147117614746,0.0,0.0,-0.006527013145387173,0.3650543689727783,0.7799232301347727,0.18472138047218323,0.5832738280296326,0.17819437384605408,0.7781627774238586,3.7127695083618164,0.9967670440673828,,,,,,,
9386536000.0,87.46,0.47999998927116394,12495335936.0,1110.0662441921384,216.0,0.0032831470016390085,888832.0,2313.8412697315216,1.1792650189690335e-14,0.0,2.5288138389587402,-0.02528814971446991,0.0570385679602623,-0.025288138538599014,-1.1175870895385742e-08,0.0,-0.003924468066543341,0.337771475315094,0.7005947627251227,0.15616118907928467,0.5150982737541199,0.1522367298603058,0.6172958016395569,3.6898698806762695,0.9966084957122803,,,,,,,
9386536000.0,95.03,0.550000011920929,12495335936.0,1124.8857383700138,217.0,0.0056325155310332775,892928.0,2317.482528448105,1.1553258350005535e-14,0.0,2.514958620071411,-0.025149578228592873,0.06644278764724731,-0.02514958567917347,7.450580596923828e-09,0.0,-0.017796853557229042,0.3641444742679596,0.508607682953891,0.28741276264190674,0.3820519745349884,0.26961588859558105,0.5194688439369202,3.641258716583252,0.9967913627624512,,,,,,,
9386536000.0,88.79,0.4699999988079071,12495335936.0,1122.23983950411,218.0,0.0017225946066901088,897024.0,2321.1323721408844,1.1138659439247078e-14,0.0,2.5119566917419434,-0.025119567289948463,0.0978778526186943,-0.025119565427303314,-1.862645149230957e-09,0.0,-0.025502149015665054,0.44176122546195984,0.41606277620639687,0.23629918694496155,0.37712687253952026,0.2107970416545868,0.5781020522117615,3.649843692779541,0.9978997707366943,,,,,,,
9386536000.0,88.05,0.44999998807907104,12495335936.0,1099.460542441356,219.0,0.006426770705729723,901120.0,2324.8578355312347,1.264266469291897e-14,0.0,2.468029499053955,-0.024680282920598984,0.05687544494867325,-0.02468029409646988,1.1175870895385742e-08,0.0,0.007695753592997789,0.3372231125831604,0.6932245201116315,0.26251596212387085,0.5107325315475464,0.27021172642707825,0.6088453531265259,3.725463390350342,0.996640682220459,,,,,,,
9386536000.0,86.1,0.7599999904632568,12495335936.0,1082.5979488582632,220.0,0.007218454033136368,905216.0,2328.641326904297,1.209969624493823e-14,0.0,2.4741716384887695,-0.024741709232330322,0.037167541682720184,-0.02474171668291092,7.450580596923828e-09,0.0,0.061724625527858734,0.2655981481075287,0.7108910008289184,0.19484874606132507,0.4797424376010895,0.2565733790397644,0.493962824344635,3.783491373062134,0.9966983795166016,,,,,,,
9386536000.0,87.74,0.7799999713897705,12495335936.0,1118.2387815973207,221.0,0.003925828263163567,909312.0,2332.304229736328,1.194183640862434e-14,0.0,2.464700222015381,-0.024646997451782227,0.05465980991721153,-0.024647001177072525,3.725290298461914e-09,0.0,0.011146710254251957,0.33048757910728455,0.7346045488190149,0.1382635533809662,0.550750195980072,0.14941024780273438,0.6415173411369324,3.66290283203125,0.9965918064117432,,,,,,,
9386536000.0,89.16,0.6899999976158142,12495335936.0,1098.6982043630035,222.0,0.0012566528748720884,913408.0,2336.032278060913,1.1265294252993385e-14,0.0,2.4991958141326904,-0.0249919556081295,0.09642191231250763,-0.02499195747077465,2.7939677238464355e-09,0.0,-0.017071008682250977,0.43886151909828186,0.6341641882151727,0.11064034700393677,0.5631497502326965,0.09356933832168579,0.7255784869194031,3.728048324584961,0.9968471527099609,,,,,,,
9386536000.0,87.38,0.1899999976158142,12495335936.0,1117.0277669989773,223.0,0.0028303617145866156,917504.0,2339.699151992798,1.1775302954930567e-14,0.0,2.499539375305176,-0.02499539405107498,0.0608527734875679,-0.02499539405107498,-9.313225746154785e-10,0.0,-0.022746575996279716,0.348163366317749,0.4876190033030604,0.1971379816532135,0.3927259147167206,0.17439141869544983,0.48639214038848877,3.6668739318847656,0.9967813491821289,,,,,,,
,,,,,,,,,,,,,,,,,,,,,,,,,,0.006167709827423096,0.07945548743009567,0.07038422673940659,0.006167709827423096,0.07945548743009567,0.07038422673940659,
,,,,,,,,,,,,,,,,,,,,,,,,,,0.005903634242713451,0.06654945015907288,0.062072642147541046,0.005903634242713451,0.06654945015907288,0.062072642147541046,
,,,,,,,,,,,,,,,,,,,,,,,,,,0.004811985418200493,0.061515651643276215,0.05963859707117081,0.004811985418200493,0.061515651643276215,0.05963859707117081,
,,,,,,,,,,,,,,,,,,,,,,,,,,0.004084739368408918,0.056146446615457535,0.052459582686424255,0.004084739368408918,0.056146446615457535,0.052459582686424255,
,,,,,,,,,,,,,,,,,,,,,,,,,,0.004142645746469498,0.05264461413025856,0.049932852387428284,0.004142645746469498,0.05264461413025856,0.049932852387428284,
,,,,,,,,,,,,,,,,,,,,,,,,,,0.004350936505943537,0.052106354385614395,0.049060944467782974,0.004350936505943537,0.052106354385614395,0.049060944467782974,
,,,,,,,,,,,,,,,,,,,,,,,,,,,,,,,,0.14
9386536000.0,87.26,0.3100000023841858,12293103616.0,15.975165217035073,224.0,0.006610133685171604,921600.0,2596.0971262454987,1.1313866510320736e-14,0.0,2.5129361152648926,-0.025129346176981926,0.030448243021965027,-0.02512936107814312,1.4901161193847656e-08,0.0,0.0893382728099823,0.23006106913089752,0.8397313553964285,0.06662663072347641,0.5448330640792847,0.1559648960828781,0.5746703743934631,256.3979742527008,0.9973115921020508,,,,,,,
9386536000.0,83.92,0.8100000023841858,12495335936.0,1100.4755387022515,225.0,0.006616399623453617,925696.0,2599.819153547287,1.1374581831979924e-14,0.0,2.489455223083496,-0.02489454485476017,0.060407496988773346,-0.024894552305340767,7.450580596923828e-09,0.0,0.06022525578737259,0.3423689901828766,0.5824413767358747,0.15257400274276733,0.42471009492874146,0.21279925107955933,0.5298289656639099,3.72202730178833,0.9964883327484131,,,,,,,
9386536000.0,86.46,0.8600000143051147,12495335936.0,1121.9578211178102,226.0,0.006149668246507645,929792.0,2603.469914674759,1.1214987272190058e-14,0.0,2.4829392433166504,-0.024829387664794922,0.041399016976356506,-0.02482939139008522,2.7939677238464355e-09,0.0,0.020290540531277657,0.2870652377605438,0.6552051570239852,0.18094345927238464,0.3818953335285187,0.20123401284217834,0.48887771368026733,3.650761127471924,0.9967687129974365,,,,,,,
9386536000.0,89.98,0.75,12495335936.0,1097.3204281166293,227.0,0.0039449455216526985,933888.0,2607.2026438713074,1.2932363513407097e-14,0.0,2.485548496246338,-0.024855490773916245,0.0659697875380516,-0.024855485185980797,-5.587935447692871e-09,0.0,-0.004973981995135546,0.3632451593875885,0.7967093953635315,0.14604777097702026,0.6309884190559387,0.1410737782716751,0.8056402802467346,3.732729196548462,0.9966187477111816,,,,,,,
9386536000.0,92.02,0.6899999976158142,12495335936.0,1110.3281784113203,228.0,0.004894225858151913,937984.0,2610.8916432857513,1.2033776752851111e-14,0.0,2.465320348739624,-0.02465321123600006,0.05478641390800476,-0.024653203785419464,-7.450580596923828e-09,0.0,0.021397173404693604,0.3303658962249756,0.6174307077406782,0.23710820078849792,0.431404709815979,0.25850537419319153,0.5341216325759888,3.6889994144439697,0.9965801239013672,,,,,,,
9386536000.0,89.02,0.7200000286102295,12495335936.0,1110.7934503291801,229.0,0.0036352851893752813,942080.0,2614.579097509384,1.1449174941446927e-14,0.0,2.478679656982422,-0.02478678897023201,0.04973652586340904,-0.024786796420812607,7.450580596923828e-09,0.0,-0.006365365348756313,0.315367728471756,0.6639117887758593,0.2530033588409424,0.44432711601257324,0.2466379702091217,0.5439896583557129,3.6874542236328125,0.9968113899230957,,,,,,,
9386536000.0,86.23,0.6800000071525574,12495335936.0,1118.2566872975096,230.0,0.006011464167386293,946176.0,2618.241941690445,1.1685097334179773e-14,0.0,2.433910846710205,-0.02433910220861435,0.04533233493566513,-0.024339107796549797,4.6566128730773926e-09,0.0,0.01359918899834156,0.3008352220058441,0.6467880291639851,0.27987948060035706,0.4606202244758606,0.29347866773605347,0.5061869621276855,3.662844181060791,0.9964385032653809,,,,,,,
9386536000.0,88.4,0.6000000238418579,12495335936.0,1130.0014163932356,231.0,0.005064931698143482,950272.0,2621.8667159080505,1.1343356809412342e-14,0.0,2.4882333278656006,-0.024882325902581215,0.0783756822347641,-0.024882333353161812,7.450580596923828e-09,0.0,-0.032513316720724106,0.39462926983833313,0.7100935171040315,0.2966134250164032,0.543272852897644,0.2641001045703888,0.7329263687133789,3.624774217605591,0.9966328144073486,,,,,,,
9386536000.0,87.85,0.8399999737739563,12495335936.0,1092.1702168508398,232.0,0.00807982124388218,954368.0,2625.617047071457,1.1749282102790914e-14,0.0,2.4895358085632324,-0.024895358830690384,0.05026925727725029,-0.024895356968045235,-1.862645149230957e-09,0.0,-0.014546391554176807,0.3167829215526581,0.6771435035984492,0.38763096928596497,0.43820253014564514,0.37308457493782043,0.5575155019760132,3.750331163406372,0.9964959621429443,,,,,,,
9386536000.0,86.7,0.8500000238418579,12495335936.0,1121.91832933987,233.0,0.003963977564126253,958464.0,2629.267936706543,1.2203779653496838e-14,0.0,2.4783525466918945,-0.024783525615930557,0.06036137044429779,-0.024783525615930557,0.0,0.0,-0.028164846822619438,0.34635064005851746,0.7734474540355099,0.22520402073860168,0.6038959622383118,0.1970391869544983,0.7276650667190552,3.6508896350860596,0.9969096183776855,,,,,,,
9386536000.0,85.95,0.699999988079071,12495335936.0,1068.7321420839814,234.0,0.006666780449450016,962560.0,2633.1005153656006,1.1950510026004224e-14,0.0,2.474336624145508,-0.024743355810642242,0.04345957934856415,-0.02474336512386799,8.381903171539307e-09,0.0,0.03092324361205101,0.2932301163673401,0.7087530563870466,0.2714545726776123,0.5616090297698975,0.3023777902126312,0.5433477759361267,3.832578659057617,0.9966170787811279,,,,,,,
9386536000.0,85.31,0.8799999952316284,12495335936.0,1131.5281162508434,235.0,0.006196838803589344,966656.0,2636.720398902893,1.3303594337266134e-14,0.0,2.4855480194091797,-0.0248554777354002,0.050519246608018875,-0.02485547959804535,1.862645149230957e-09,0.0,0.018124068155884743,0.3173871636390686,0.5724846173801019,0.322541743516922,0.4127073884010315,0.3406658172607422,0.48541533946990967,3.6198835372924805,0.9964072704315186,,,,,,,
9386536000.0,85.22,0.9700000286102295,12495335936.0,1094.0113239312595,236.0,0.009382168762385845,970752.0,2640.4644186496735,1.2576745200831851e-14,0.0,2.453256130218506,-0.024532560259103775,0.03367007151246071,-0.024532560259103775,0.0,0.0,0.010238975286483765,0.2593293786048889,0.7935996745561202,0.40994852781295776,0.4953925907611847,0.42018750309944153,0.5708165168762207,3.7440197467803955,0.9967381954193115,,,,,,,
9386536000.0,83.3,0.9900000095367432,12495335936.0,1110.3194955104102,237.0,0.008276762440800667,974848.0,2644.1534469127655,1.2578479924307828e-14,0.0,2.432328462600708,-0.02432328835129738,0.04104148969054222,-0.02432328462600708,-3.725290298461914e-09,0.0,0.03578796610236168,0.28429198265075684,0.641906319004955,0.29180973768234253,0.41929423809051514,0.3275977373123169,0.4750795364379883,3.689028263092041,0.9962913990020752,,,,,,,
9386536000.0,82.4,0.7799999713897705,12495335936.0,1102.2319715532165,238.0,0.005258713848888874,978944.0,2647.8695430755615,1.3660947373317356e-14,0.0,2.464813232421875,-0.024648120626807213,0.03332982212305069,-0.024648131802678108,1.1175870895385742e-08,0.0,-0.006324714981019497,0.25813934206962585,0.7122810506782377,0.3710218667984009,0.4125158190727234,0.3646971583366394,0.4812491238117218,3.7160961627960205,0.9963433742523193,,,,,,,
9386536000.0,85.53,0.9100000262260437,12495335936.0,1134.9050490116904,239.0,0.010047866962850094,983040.0,2651.478655576706,1.3194306758279595e-14,0.0,2.4723875522613525,-0.024723881855607033,0.03407610207796097,-0.024723874405026436,-7.450580596923828e-09,0.0,0.03717191144824028,0.2584313154220581,0.6868471554540003,0.3776901364326477,0.4189186990261078,0.4148620367050171,0.46181389689445496,3.609112501144409,0.9965858459472656,,,,,,,
9386536000.0,88.97,1.25,12495335936.0,1130.5511725049967,240.0,0.007502516265958548,987136.0,2655.101667165756,1.3558598688234724e-14,0.0,2.4435648918151855,-0.02443564124405384,0.03265846148133278,-0.024435648694634438,7.450580596923828e-09,0.0,0.005557014606893063,0.255542516708374,0.8204405819943754,0.34726428985595703,0.567568302154541,0.3528212904930115,0.6030580401420593,3.623011589050293,0.9961874485015869,,,,,,,
9386536000.0,87.56,1.25,12495335936.0,1086.7334507199948,241.0,0.00958936009556055,991232.0,2658.870760679245,1.4110240753595349e-14,0.0,2.463637113571167,-0.02463635802268982,0.03641233593225479,-0.024636371061205864,1.30385160446167e-08,0.0,0.0552973635494709,0.2641664743423462,0.6761171043477571,0.30852627754211426,0.46985605359077454,0.36382362246513367,0.4641770124435425,3.7690935134887695,0.9963498115539551,,,,,,,
9386536000.0,86.47,0.8100000023841858,12495335936.0,1119.6863331922527,242.0,0.002078817691653967,995328.0,2662.528928041458,1.3824011380059176e-14,0.0,2.4510345458984375,-0.024510344490408897,0.07307574152946472,-0.024510344490408897,0.0,0.0,-0.04019744694232941,0.38022488355636597,0.4771917322869038,0.3353317379951477,0.40726983547210693,0.2951343059539795,0.525858998298645,3.6581673622131348,0.9969017505645752,,,,,,,
9386536000.0,85.57,0.5199999809265137,12495335936.0,1109.6366270199997,243.0,0.004481512121856213,999424.0,2666.2202265262604,1.3950646193805483e-14,0.0,2.438629388809204,-0.024386297911405563,0.04928666353225708,-0.024386294186115265,-3.725290298461914e-09,0.0,-0.009379683062434196,0.31386205554008484,0.5308510437831917,0.27403146028518677,0.42675745487213135,0.26465174555778503,0.4582298994064331,3.691298484802246,0.9965293407440186,,,,,,,
9386536000.0,84.12,0.5600000023841858,12495335936.0,1136.8458642317776,244.0,0.005605702754110098,1003520.0,2669.823177576065,1.3052059433249497e-14,0.0,2.460782766342163,-0.024607842788100243,0.06980425119400024,-0.02460782788693905,-1.4901161193847656e-08,0.0,0.008140165358781815,0.3735991418361664,0.6057582641074535,0.3316049575805664,0.4627220332622528,0.3397451639175415,0.5950103998184204,3.6029510498046875,0.9966988563537598,,,,,,,
9386536000.0,80.09,0.7400000095367432,12495335936.0,1122.7453793414977,245.0,0.006089513190090656,1007616.0,2673.471377849579,1.3100631690576847e-14,0.0,2.4758410453796387,-0.024758415296673775,0.09560339897871017,-0.024758409708738327,-5.587935447692871e-09,0.0,-0.020071204751729965,0.4368644654750824,0.4465673659561161,0.32720816135406494,0.4241678714752197,0.3071369528770447,0.5872381925582886,3.648200273513794,0.9967794418334961,,,,,,,
9386536000.0,85.53,0.5199999809265137,12495335936.0,1120.3101772542436,246.0,0.0003207505214959383,1011712.0,2677.127508163452,1.3393799958016928e-14,0.0,2.460942268371582,-0.02460942231118679,0.10296976566314697,-0.02460942231118679,0.0,0.0,-0.09985659271478653,0.44273701310157776,0.618070369332117,0.3062448501586914,0.5113486647605896,0.20638824999332428,0.7163976430892944,3.656130313873291,0.9964132308959961,,,,,,,
9386536000.0,86.33,0.5400000214576721,12495335936.0,1119.1394354126555,247.0,0.0067368182353675365,1015808.0,2680.7874631881714,1.2831749551800442e-14,0.0,2.4887170791625977,-0.024887165054678917,0.09115881472826004,-0.024887170642614365,5.587935447692871e-09,0.0,0.01828685961663723,0.42664700746536255,0.4343589017284294,0.2852158546447754,0.40166425704956055,0.3035026788711548,0.5672810077667236,3.6599550247192383,0.9963943958282471,,,,,,,
9386536000.0,82.87,0.5400000214576721,12495335936.0,1107.2719565708906,248.0,0.0032096703071147203,1019904.0,2684.486644744873,1.280052452923286e-14,0.0,2.4861698150634766,-0.024861697107553482,0.06930916011333466,-0.024861697107553482,0.0,0.0,-0.016081003472208977,0.37201276421546936,0.5043960925812817,0.23849567770957947,0.3203900456428528,0.22241467237472534,0.5284337401390076,3.69918155670166,0.9975433349609375,,,,,,,
9386536000.0,89.06,0.5899999737739563,12495335936.0,1110.7022461311644,249.0,0.007388298399746418,1024000.0,2688.1744017601013,1.2725931419765857e-14,0.0,2.471942663192749,-0.024719415232539177,0.05096831172704697,-0.024719426408410072,1.1175870895385742e-08,0.0,0.04610317200422287,0.3159675598144531,0.5068708618515243,0.2380998581647873,0.2966323792934418,0.28420305252075195,0.4499478042125702,3.6877570152282715,0.9965300559997559,,,,,,,
9386536000.0,90.51,1.0299999713897705,12495335936.0,1110.4748753792724,250.0,0.009320436045527458,1028096.0,2691.8629138469696,1.260450077644748e-14,0.0,2.48268985748291,-0.02482689917087555,0.06749414652585983,-0.0248268973082304,-2.7939677238464355e-09,0.0,0.06535784155130386,0.3615916967391968,0.5350011741225145,0.2748698592185974,0.34246084094047546,0.34022772312164307,0.5302644968032837,3.688512086868286,0.9965195655822754,,,,,,,
9386536000.0,81.36,1.2999999523162842,12495335936.0,1134.9372129191454,251.0,0.011253958567976952,1032192.0,2695.4719240665436,1.2068471222370647e-14,0.0,2.499485492706299,-0.0249948687851429,0.04356503114104271,-0.024994853883981705,-1.4901161193847656e-08,0.0,0.057088643312454224,0.2896401584148407,0.6953019473847011,0.2821601927280426,0.386259526014328,0.3392488360404968,0.5247155427932739,3.6090102195739746,0.9966442584991455,,,,,,,
9386536000.0,78.31,0.9399999976158142,12495335936.0,1126.9664046657551,252.0,0.0057935211807489395,1036288.0,2699.106460094452,1.218122824830914e-14,0.0,2.4866867065429688,-0.024866869673132896,0.05781672149896622,-0.024866865947842598,-3.725290298461914e-09,0.0,0.023946566507220268,0.33924639225006104,0.5267553257585078,0.2556896209716797,0.3675394058227539,0.2796362042427063,0.49314239621162415,3.634536027908325,0.997023344039917,,,,,,,
9386536000.0,84.08,0.8100000023841858,12495335936.0,1105.2171655042498,253.0,0.006599822081625462,1040384.0,2702.8125190734863,1.1966122537288015e-14,0.0,2.519763469696045,-0.02519763447344303,0.06812627613544464,-0.02519763447344303,0.0,0.0,-0.003659205511212349,0.36915096640586853,0.7376013487072508,0.32074424624443054,0.5466465353965759,0.31708505749702454,0.7206480503082275,3.706058979034424,0.9981992244720459,,,,,,,
9386536000.0,86.04,0.7699999809265137,12495335936.0,1096.1578407848601,254.0,0.0037050063256174326,1044480.0,2706.5492072105408,1.1844691893969639e-14,0.0,2.5063374042510986,-0.025063371285796165,0.051289502531290054,-0.025063373148441315,1.3969838619232178e-09,0.0,-0.03855878487229347,0.3179888427257538,0.6672544301730376,0.3511424958705902,0.44615793228149414,0.31258368492126465,0.5512591004371643,3.7366881370544434,0.9969196319580078,,,,,,,
9386536000.0,85.64,0.5299999713897705,12495335936.0,1114.9301303400887,255.0,0.005642195697873831,1048576.0,2710.2229800224304,1.2228065782160513e-14,0.0,2.4880762100219727,-0.02488076128065586,0.06176764518022537,-0.02488076128065586,0.0,0.0,-0.019788535311818123,0.35096120834350586,0.6146839760213412,0.35922911763191223,0.435854434967041,0.33944058418273926,0.5653932094573975,3.6737728118896484,0.9968667030334473,,,,,,,
,,,,,,,,,,,,,,,,,,,,,,,,,,0.010658237151801586,0.06852469593286514,0.05652949586510658,0.010658237151801586,0.06852469593286514,0.05652949586510658,
