CpuMaxMemory,EpLenMean,EpRewMean,GpuMaxMemory,IPS_total,Iter,Misc/FrameRewMean,Misc/InteractCount,Misc/TimeElapsed,Opt/approxkl,Opt/clipfrac,Opt/entropy,Opt/loss_pi,Opt/loss_vf,Opt/negent,Opt/pg,Opt/pi_kl,VFStats/AdvMean,VFStats/AdvStd,VFStats/EV,VFStats/VpredMean,VFStats/VpredStd,VFStats/VtargMean,VFStats/VtargStd,del_time,wait_optimization,scaled/pol_distance,scaled/vf_aux,scaled/vf_true,unscaled/pol_distance,unscaled/vf_aux,unscaled/vf_true,EvalEpMean
3030392000.0,79.4186046511628,-2.34883713722229,11965495808.0,1511.0501160562171,0.0,-0.015286291018128395,4096.0,2.710697650909424,4.045375145977914e-15,0.0,2.706751823425293,-0.027067502960562706,0.2127545177936554,-0.0270675178617239,1.4901161193847656e-08,0.0,-0.19171574711799622,0.6235775947570801,0.0024908767170320756,-0.0027826311998069286,0.007028449326753616,-0.19449838995933533,0.624355673789978,2.710697650909424,1.0204355716705322,,,,,,,
3081252000.0,83.03370786516854,-2.494381904602051,12031147008.0,1634.6014833122379,1.0,-0.015699129551649094,8192.0,5.216507196426392,4.690692279041286e-15,0.0,2.7002573013305664,-0.027002573013305664,0.21339130401611328,-0.027002573013305664,0.0,0.0,-0.1591275930404663,0.633686900138855,-0.0006299664750466505,-0.26996344327926636,0.04060131683945656,-0.42909103631973267,0.6334874033927917,2.5058095455169678,0.9962913990020752,,,,,,,
3130616000.0,86.35,-3.009999990463257,12031147008.0,1574.9261400769042,2.0,-0.0177905336022377,12288.0,7.817264080047607,5.322131624296844e-15,0.0,2.687607526779175,-0.02687605284154415,0.20956557989120483,-0.026876075193285942,2.2351741790771484e-08,0.0,-0.10983207821846008,0.6380967497825623,-0.027300149556995335,-0.6793417930603027,0.1024465560913086,-0.78917396068573,0.6295611262321472,2.600756883621216,0.9964616298675537,,,,,,,
3181568000.0,89.22,-3.440000057220459,12031147008.0,1696.746536235444,3.0,-0.012256722897291183,16384.0,10.231295824050903,6.983996714282625e-15,0.0,2.6635046005249023,-0.02663503587245941,0.21972033381462097,-0.026635045185685158,8.381903171539307e-09,0.0,0.10428936034440994,0.6547282338142395,0.08464489008806253,-1.355285406112671,0.19758786261081696,-1.2509961128234863,0.6843312382698059,2.414031744003296,0.9964814186096191,,,,,,,
3230672000.0,85.94,-3.0799999237060547,12031147008.0,1679.728908853285,4.0,-0.01491638831794262,20480.0,12.669784545898438,6.4063337967823486e-15,0.0,2.6392154693603516,-0.02639216184616089,0.24695312976837158,-0.026392154395580292,-7.450580596923828e-09,0.0,0.06125109642744064,0.700195848941803,-0.07472911531008108,-1.2827675342559814,0.1890566051006317,-1.221516489982605,0.675413966178894,2.438488721847534,0.996434211730957,,,,,,,
3279776000.0,82.16,-3.190000057220459,12031147008.0,1664.4327945748767,5.0,-0.013187240809202194,24576.0,15.130682945251465,5.92755011741275e-15,0.0,2.641831874847412,-0.02641831338405609,0.18960249423980713,-0.02641831897199154,5.587935447692871e-09,0.0,0.03850790858268738,0.6146660447120667,0.003677054000276403,-1.033102035522461,0.1346839964389801,-0.9945940971374512,0.6157992482185364,2.4608983993530273,0.9961104393005371,,,,,,,
3329408000.0,79.13,-2.5,12031147008.0,1797.0843270981982,6.0,-0.011621885001659393,28672.0,17.40993046760559,6.564193633096238e-15,0.0,2.6538801193237305,-0.026538800448179245,0.1942126303911209,-0.026538800448179245,0.0,0.0,0.015177685767412186,0.6231289505958557,0.02593444225508379,-0.7995083928108215,0.09611630439758301,-0.7843307256698608,0.6313698887825012,2.279247522354126,0.9970517158508301,,,,,,,
3379828000.0,82.58,-2.690000057220459,12031147008.0,1815.8697425916337,7.0,-0.014510816894471645,32768.0,19.66559886932373,6.498274141009119e-15,0.0,2.6419646739959717,-0.026419643312692642,0.1471555382013321,-0.02641964703798294,3.725290298461914e-09,0.0,-0.03734244778752327,0.5412837862968445,0.027822589423949773,-0.6477317810058594,0.08349831402301788,-0.6850742697715759,0.5489745736122131,2.2556684017181396,0.9967851638793945,,,,,,,
3429196000.0,84.75,-2.75,12031147008.0,1747.7415186585545,8.0,-0.013569632545113564,36864.0,22.00919485092163,5.9032639887490745e-15,0.0,2.6206283569335938,-0.026206286624073982,0.1453971266746521,-0.026206282898783684,-3.725290298461914e-09,0.0,-0.052719227969646454,0.5367357730865479,0.06430883631977358,-0.5295601487159729,0.08664962649345398,-0.5822793841362,0.5548738837242126,2.3435959815979004,0.9966459274291992,,,,,,,
3478300000.0,83.19,-2.309999942779541,12031147008.0,1719.588715288291,9.0,-0.010963661596179008,40960.0,24.391159772872925,5.88418203051333e-15,0.0,2.5795536041259766,-0.02579554170370102,0.13848021626472473,-0.02579553611576557,-5.587935447692871e-09,0.0,-0.040611688047647476,0.5247650146484375,0.07357943519292987,-0.5085217952728271,0.09005548804998398,-0.5491335391998291,0.5452062487602234,2.381964921951294,0.9966099262237549,,,,,,,
3527668000.0,80.25,-2.0999999046325684,12031147008.0,1728.2549998304928,10.0,-0.010483738034963608,45056.0,26.76118040084839,6.402864349830395e-15,0.0,2.5162510871887207,-0.025162503123283386,0.13107596337795258,-0.025162510573863983,7.450580596923828e-09,0.0,-0.014766231179237366,0.5118572115898132,-0.032432294035555476,-0.5138751864433289,0.08664631843566895,-0.528641402721405,0.5037534236907959,2.370020627975464,0.996312141418457,,,,,,,
3578620000.0,80.32,-2.2300000190734863,12031147008.0,1739.0742369677764,11.0,-0.011778678745031357,49152.0,29.116456508636475,6.473988012345444e-15,0.0,2.461425542831421,-0.024614248424768448,0.12065631151199341,-0.024614254012703896,5.587935447692871e-09,0.0,-0.03253614902496338,0.4902169406414032,0.10312126498865215,-0.5482704639434814,0.12942801415920258,-0.5808066129684448,0.5176323652267456,2.355276107788086,0.9961845874786377,,,,,,,
3627988000.0,79.57,-2.2699999809265137,12031147008.0,1761.1226231454893,12.0,-0.010729162953794003,53248.0,31.442245721817017,5.863365348801608e-15,0.0,2.459725856781006,-0.024597246199846268,0.15003210306167603,-0.024597257375717163,1.1175870895385742e-08,0.0,-0.02347339317202568,0.5473448038101196,0.08635264916980678,-0.574265718460083,0.1214529424905777,-0.5977391004562378,0.5726268291473389,2.325789213180542,0.9965932369232178,,,,,,,
3677092000.0,80.36,-1.9800000190734863,12031147008.0,1684.6351848641339,13.0,-0.011473547667264938,57344.0,33.87363266944885,5.771425004574837e-15,0.0,2.449169874191284,-0.024491693824529648,0.13606059551239014,-0.024491697549819946,4.6566128730773926e-09,0.0,-0.00975535437464714,0.5216248035430908,0.019018798205315823,-0.6409949064254761,0.15324006974697113,-0.6507502794265747,0.5266571044921875,2.431386947631836,0.9980125427246094,,,,,,,
3726196000.0,79.76,-1.909999966621399,12031147008.0,1787.5670729302744,14.0,-0.00833887793123722,61440.0,36.16501522064209,5.9483667991244715e-15,0.0,2.417354106903076,-0.024173540994524956,0.13422605395317078,-0.024173540994524956,0.0,0.0,0.05419403314590454,0.515344500541687,0.023786616709648545,-0.7212231159210205,0.17101937532424927,-0.667029082775116,0.5215851664543152,2.2913825511932373,0.9963805675506592,,,,,,,
3777148000.0,82.1,-1.9500000476837158,12031147008.0,1797.1076372112066,15.0,-0.009910602122545242,65536.0,38.44423317909241,5.76448611067093e-15,0.0,2.4654653072357178,-0.024654656648635864,0.1679673194885254,-0.024654652923345566,-3.725290298461914e-09,0.0,0.025077015161514282,0.5791265964508057,0.11829788911406935,-0.672671914100647,0.15270905196666718,-0.6475948691368103,0.6167548298835754,2.2792179584503174,0.9966647624969482,,,,,,,
3826252000.0,85.04,-2.200000047683716,12031147008.0,1526.0961934713853,16.0,-0.011330241337418556,69632.0,41.12820553779602,5.7506083228631155e-15,0.0,2.4927258491516113,-0.02492726966738701,0.1406683623790741,-0.024927258491516113,-1.1175870895385742e-08,0.0,-0.004165878519415855,0.5304602384567261,0.07053911803793778,-0.6233660578727722,0.07609590142965317,-0.627531886100769,0.5502211451530457,2.6839723587036133,0.9975733757019043,,,,,,,
3875620000.0,82.64,-1.5800000429153442,12031147008.0,1592.1584749118676,17.0,-0.008580969646573067,73728.0,43.70081377029419,5.8043847506183965e-15,0.0,2.4531807899475098,-0.024531809613108635,0.1299581378698349,-0.024531807750463486,-1.862645149230957e-09,0.0,0.027230530977249146,0.5091542601585388,0.00932952271982912,-0.6302170753479004,0.11866036802530289,-0.6029865145683289,0.5115460753440857,2.572608232498169,0.9962215423583984,,,,,,,
3924724000.0,81.21,-1.7799999713897705,12031147008.0,1734.574305569298,18.0,-0.014707911759614944,77824.0,46.06220006942749,5.9396931817445875e-15,0.0,2.4867258071899414,-0.024867242202162743,0.19044296443462372,-0.024867257103323936,1.4901161193847656e-08,0.0,-0.06756097078323364,0.613525390625,0.08175290928666201,-0.5950729846954346,0.15249347686767578,-0.6626338958740234,0.6402546763420105,2.361386299133301,0.9964931011199951,,,,,,,
3975148000.0,82.55,-3.240000009536743,12031147008.0,1717.7065886847267,19.0,-0.019154325127601624,81920.0,48.44677495956421,5.368969158148218e-15,0.0,2.4566354751586914,-0.02456635795533657,0.1952170431613922,-0.024566354230046272,-3.725290298461914e-09,0.0,-0.12684477865695953,0.6119116544723511,0.044392237299714865,-0.5823568105697632,0.12941314280033112,-0.7092015743255615,0.6259634494781494,2.3845748901367188,0.9968972206115723,,,,,,,
4024252000.0,80.51,-2.7899999618530273,12031147008.0,1630.7662033945444,20.0,-0.00791290495544672,86016.0,50.95847773551941,5.195496810550537e-15,0.0,2.407815456390381,-0.02407815493643284,0.12385039776563644,-0.02407815493643284,0.0,0.0,0.054126568138599396,0.49480387568473816,0.07914730622080157,-0.7165210247039795,0.20980963110923767,-0.6623944044113159,0.5156297087669373,2.5117027759552,0.9968469142913818,,,,,,,
4073356000.0,82.81,-1.8200000524520874,12031147008.0,1644.5172863726582,21.0,-0.010592766106128693,90112.0,53.44917821884155,5.1486592766991635e-15,0.0,2.4339218139648438,-0.0243392251431942,0.1492222249507904,-0.0243392176926136,-7.450580596923828e-09,0.0,0.02611566334962845,0.5457426905632019,0.03297750208258232,-0.753669023513794,0.16867147386074066,-0.7275533676147461,0.5549702644348145,2.4907004833221436,0.9961493015289307,,,,,,,
4122724000.0,84.97,-2.2699999809265137,12031147008.0,1669.5754089689146,22.0,-0.012067832052707672,94208.0,55.902496576309204,4.184153024056059e-15,0.0,2.5046072006225586,-0.02504606358706951,0.16174377501010895,-0.02504607103765011,7.450580596923828e-09,0.0,0.014009345322847366,0.5686565041542053,0.07299307289671131,-0.727238118648529,0.14162208139896393,-0.713228702545166,0.5906204581260681,2.4533183574676514,0.9962983131408691,,,,,,,
4172884000.0,88.27,-2.440000057220459,12031147008.0,1670.7389228825582,23.0,-0.013415979221463203,98304.0,58.354106426239014,4.44436154545258e-15,0.0,2.5062851905822754,-0.025062859058380127,0.15686488151550293,-0.02506285160779953,-7.450580596923828e-09,0.0,-0.04289188235998154,0.5585393905639648,0.10370072145940612,-0.7002591490745544,0.11971753090620041,-0.7431510090827942,0.589966356754303,2.4516098499298096,0.99613356590271,,,,,,,
4222304000.0,89.58,-2.200000047683716,12031147008.0,1709.158431438249,24.0,-0.009475097060203552,102400.0,60.75060749053955,4.871103520542874e-15,0.0,2.4897234439849854,-0.02489723078906536,0.14475853741168976,-0.02489723451435566,3.725290298461914e-09,0.0,0.05266018211841583,0.5355501770973206,0.09936775499159878,-0.7613504528999329,0.14541149139404297,-0.7086902856826782,0.5643213987350464,2.396501064300537,0.9969325065612793,,,,,,,
4271520000.0,89.87,-2.109999895095825,12031147008.0,1618.3103302301354,25.0,-0.009301740676164627,106496.0,63.2816424369812,4.8520215623071294e-15,0.0,2.4669241905212402,-0.024669229984283447,0.13727214932441711,-0.024669241160154343,1.1175870895385742e-08,0.0,0.009164908900856972,0.5239536166191101,0.12168222036049792,-0.7495763897895813,0.14816990494728088,-0.7404115200042725,0.5590709447860718,2.5310349464416504,0.9965250492095947,,,,,,,
4320888000.0,86.18,-2.0299999713897705,12031147008.0,1660.7544952123408,26.0,-0.00880298763513565,110592.0,65.74799132347107,5.754077769815069e-15,0.0,2.34945011138916,-0.023494496941566467,0.1385030299425125,-0.023494500666856766,3.725290298461914e-09,0.0,0.03486304730176926,0.5252218246459961,0.09679118966067701,-0.7081345915794373,0.1506684422492981,-0.6732715368270874,0.55264812707901,2.466348886489868,0.9966437816619873,,,,,,,
4370784000.0,84.02,-1.600000023841858,12031147008.0,1638.0316453342725,27.0,-0.010452951304614544,114688.0,68.24855351448059,5.8668347957535616e-15,0.0,2.2791574001312256,-0.02279156632721424,0.13689786195755005,-0.022791573777794838,7.450580596923828e-09,0.0,-0.018258824944496155,0.5230001211166382,0.19608060492107626,-0.6722733974456787,0.17951306700706482,-0.6905322074890137,0.5833048224449158,2.5005621910095215,0.9963362216949463,,,,,,,
4419888000.0,83.5,-1.850000023841858,12031147008.0,1702.6421961357657,28.0,-0.01050470769405365,118784.0,70.65422630310059,6.238065619612598e-15,0.0,2.095323085784912,-0.020953234285116196,0.12945082783699036,-0.020953230559825897,-3.725290298461914e-09,0.0,0.017330346629023552,0.5085906386375427,0.13444984226785028,-0.6663000583648682,0.167389914393425,-0.6489697694778442,0.5466662645339966,2.405672788619995,0.9964005947113037,,,,,,,
4469520000.0,86.64,-2.0799999237060547,12031147008.0,1712.1283575860123,29.0,-0.008830062113702297,122880.0,73.04657030105591,7.240735788727193e-15,0.0,2.047506809234619,-0.020475059747695923,0.10573241114616394,-0.02047506719827652,7.450580596923828e-09,0.0,0.015514116734266281,0.45964738726615906,0.10339843194010023,-0.6156519651412964,0.17384888231754303,-0.6001378297805786,0.4854282736778259,2.3923439979553223,0.9973211288452148,,,,,,,
4518888000.0,90.79,-1.649999976158142,12031147008.0,1738.1835685564852,30.0,-0.0071239471435546875,126976.0,75.4030532836914,8.630249292984615e-15,0.0,1.9772040843963623,-0.019772032275795937,0.10089167952537537,-0.019772039726376534,7.450580596923828e-09,0.0,0.02837441861629486,0.44836071133613586,0.23180467436328556,-0.60469651222229,0.18621182441711426,-0.5763221383094788,0.5115543603897095,2.356482982635498,0.9971678256988525,,,,,,,
4568256000.0,92.06,-1.6399999856948853,12031147008.0,1657.29831153008,31.0,-0.009027931839227676,131072.0,77.87454557418823,9.75261538194161e-15,0.0,1.8282074928283691,-0.018282078206539154,0.11153379082679749,-0.018282074481248856,-3.725290298461914e-09,0.0,0.0006538247689604759,0.47235754132270813,0.2327695919568854,-0.5575163960456848,0.1964530199766159,-0.5568625926971436,0.539272129535675,2.471492290496826,0.9962685108184814,,,,,,,
,,,,,,,,,,,,,,,,,,,,,,,,,,0.005564526654779911,0.1848198026418686,0.16788595914840698,0.005564526654779911,0.1848198026418686,0.16788595914840698,
,,,,,,,,,,,,,,,,,,,,,,,,,,0.0036589503288269043,0.16268333792686462,0.1556038111448288,0.0036589503288269043,0.16268333792686462,0.1556038111448288,
,,,,,,,,,,,,,,,,,,,,,,,,,,0.002531118458136916,0.14404653012752533,0.13802161812782288,0.002531118458136916,0.14404653012752533,0.13802161812782288,
,,,,,,,,,,,,,,,,,,,,,,,,,,0.0029339580796658993,0.13527323305606842,0.13449198007583618,0.0029339580796658993,0.13527323305606842,0.13449198007583618,
,,,,,,,,,,,,,,,,,,,,,,,,,,0.00340631534345448,0.12684215605258942,0.1284884512424469,0.00340631534345448,0.12684215605258942,0.1284884512424469,
,,,,,,,,,,,,,,,,,,,,,,,,,,0.0027889732737094164,0.1189594715833664,0.11802997440099716,0.0027889732737094164,0.1189594715833664,0.11802997440099716,
,,,,,,,,,,,,,,,,,,,,,,,,,,,,,,,,-2.26
4587080000.0,84.21,-2.009999990463257,11990518784.0,17.023874906901213,32.0,-0.010836848989129066,135168.0,318.4778172969818,4.937023012629993e-15,0.0,2.0250182151794434,-0.02025018259882927,0.11307809501886368,-0.02025018259882927,0.0,0.0,0.04927344620227814,0.4730570316314697,0.5144958189382549,-0.8036388158798218,0.40003982186317444,-0.7543653845787048,0.6789175868034363,240.60327172279358,0.9965922832489014,,,,,,,
4587080000.0,81.6,-1.6699999570846558,12041169408.0,1713.9307299345369,33.0,-0.009084368124604225,139264.0,320.86764550209045,4.78089789979208e-15,0.0,2.0880870819091797,-0.020880870521068573,0.11670542508363724,-0.020880870521068573,0.0,0.0,0.058875225484371185,0.47958385944366455,0.4275803032526533,-0.7054347991943359,0.34305623173713684,-0.6465595960617065,0.6338804364204407,2.3898282051086426,0.9968934059143066,,,,,,,
4587080000.0,82.73,-1.5700000524520874,12041169408.0,1686.740058810535,34.0,-0.010074936784803867,143360.0,323.29599833488464,4.5900783174346316e-15,0.0,2.147496223449707,-0.021474959328770638,0.08938667923212051,-0.021474961191415787,1.862645149230957e-09,0.0,0.074673131108284,0.41622060537338257,0.6049585334478406,-0.7373949885368347,0.4080842137336731,-0.6627218723297119,0.6622198224067688,2.4283528327941895,0.996403694152832,,,,,,,
4587080000.0,81.99,-1.899999976158142,12041169408.0,1720.259036535456,35.0,-0.00874762050807476,147456.0,325.6770350933075,4.721917301608869e-15,0.0,2.1574697494506836,-0.021574711427092552,0.12776239216327667,-0.02157469652593136,-1.4901161193847656e-08,0.0,0.06659483909606934,0.5011498928070068,0.48052326247416655,-0.7183283567428589,0.42629948258399963,-0.6517335176467896,0.6953198909759521,2.3810367584228516,0.9963650703430176,,,,,,,
4587080000.0,84.61,-2.0,12041169408.0,1702.7412543054506,36.0,-0.011756282299757004,151552.0,328.08256793022156,4.139050213680662e-15,0.0,2.280778408050537,-0.022807789966464043,0.0998089388012886,-0.022807784378528595,-5.587935447692871e-09,0.0,0.03291000798344612,0.4456268548965454,0.5682682137929677,-0.6755234599113464,0.4469163417816162,-0.6426134705543518,0.6782101988792419,2.4055328369140625,0.996290922164917,,,,,,,
4587080000.0,86.4,-1.7699999809265137,12041169408.0,1721.0407330767714,37.0,-0.007667720317840576,155648.0,330.4625232219696,3.989863994746656e-15,0.0,2.29150390625,-0.022915035486221313,0.08847758173942566,-0.022915039211511612,3.725290298461914e-09,0.0,0.0586080327630043,0.4166084825992584,0.6137757529375216,-0.5790502429008484,0.43608763813972473,-0.5204422473907471,0.6703604459762573,2.379955291748047,0.996290922164917,,,,,,,
4587080000.0,88.23,-1.909999966621399,12041169408.0,1716.4263435684277,38.0,-0.013461885042488575,159744.0,332.8488767147064,4.067926551165613e-15,0.0,2.4052886962890625,-0.02405289188027382,0.10709881782531738,-0.02405288629233837,-4.6566128730773926e-09,0.0,-0.02452968992292881,0.46222081780433655,0.5734075095075997,-0.5136358737945557,0.410677433013916,-0.5381655693054199,0.7076897025108337,2.3863534927368164,0.997067928314209,,,,,,,
4587080000.0,83.63,-1.840000033378601,12041169408.0,1701.4993893175133,39.0,-0.007701536640524864,163840.0,335.256165266037,4.872838244018851e-15,0.0,2.444650888442993,-0.024446507915854454,0.09451574087142944,-0.024446507915854454,0.0,0.0,0.04684290289878845,0.43229952454566956,0.5662269292939683,-0.5146929025650024,0.46777084469795227,-0.4678499698638916,0.6563770771026611,2.4072885513305664,0.996959924697876,,,,,,,
4587080000.0,83.38,-1.3700000047683716,12041169408.0,1662.156896615279,40.0,-0.005829442758113146,167936.0,337.72043323516846,4.479056014972116e-15,0.0,2.4601199626922607,-0.02460121177136898,0.08819006383419037,-0.024601198732852936,-1.30385160446167e-08,0.0,0.05222070589661598,0.416767954826355,0.5691873253473944,-0.4754564166069031,0.4794752299785614,-0.4232357144355774,0.6349653601646423,2.4642679691314697,0.9963850975036621,,,,,,,
4587080000.0,81.81,-1.5,12041169408.0,1734.0550190172173,41.0,-0.009448238648474216,172032.0,340.0825266838074,4.4651782271643015e-15,0.0,2.4620208740234375,-0.024620207026600838,0.09944324940443039,-0.024620208889245987,1.862645149230957e-09,0.0,-0.02062288299202919,0.4455442428588867,0.6006303105081956,-0.41497504711151123,0.4751894772052765,-0.4355979561805725,0.7050229907035828,2.362093448638916,0.9965832233428955,,,,,,,
4587080000.0,79.36,-2.0799999237060547,12041169408.0,1687.637127356472,42.0,-0.015452155843377113,176128.0,342.5095887184143,4.5102810375396984e-15,0.0,2.4818074703216553,-0.02481808140873909,0.1261715292930603,-0.024818073958158493,-7.450580596923828e-09,0.0,-0.07744605839252472,0.49639230966567993,0.6099994679208959,-0.4655873477458954,0.56319659948349,-0.5430333614349365,0.7948632836341858,2.4270620346069336,0.997467041015625,,,,,,,
4587080000.0,85.86,-2.380000114440918,12041169408.0,1730.6504337538638,43.0,-0.012029869481921196,180224.0,344.8763289451599,4.673345044281518e-15,0.0,2.4951000213623047,-0.024951010942459106,0.12378133833408356,-0.02495099976658821,-1.1175870895385742e-08,0.0,-0.018930384889245033,0.49725714325904846,0.5711821041707033,-0.4632910490036011,0.580321729183197,-0.48222142457962036,0.7593545913696289,2.3667402267456055,0.9963693618774414,,,,,,,
4587080000.0,85.73,-2.140000104904175,12041169408.0,1652.859939353625,44.0,-0.00732371024787426,184320.0,347.3544578552246,5.126107871511465e-15,0.0,2.5117106437683105,-0.02511710673570633,0.10657861828804016,-0.02511710673570633,-9.313225746154785e-10,0.0,0.09087227284908295,0.4527134895324707,0.6471656763923166,-0.5885736346244812,0.703899085521698,-0.49770140647888184,0.7621456980705261,2.4781289100646973,0.9967553615570068,,,,,,,
4587080000.0,83.43,-1.7699999809265137,12041169408.0,1626.395327078827,45.0,-0.011404097080230713,188416.0,349.87291073799133,3.7626152193936946e-15,0.0,2.510545253753662,-0.025105450302362442,0.11650440096855164,-0.02510545216500759,1.862645149230957e-09,0.0,-0.008251257240772247,0.4826982617378235,0.561202509951616,-0.54422926902771,0.6165288686752319,-0.5524805784225464,0.7286913990974426,2.5184528827667236,0.9966835975646973,,,,,,,
4587080000.0,84.98,-1.8899999856948853,12041169408.0,1725.4737489968975,46.0,-0.009709881618618965,192512.0,352.24675154685974,4.8242659866915005e-15,0.0,2.5310652256011963,-0.02531065233051777,0.12649014592170715,-0.02531065233051777,0.0,0.0,0.048748407512903214,0.5006647109985352,0.44787512169420685,-0.5008695125579834,0.5240868330001831,-0.4521210789680481,0.6737958192825317,2.373840808868408,0.9963099956512451,,,,,,,
4587080000.0,85.31,-1.75,12041169408.0,1631.0523191072778,47.0,-0.007599241100251675,196608.0,354.75801372528076,4.758346494604382e-15,0.0,2.5456204414367676,-0.025456205010414124,0.08384840190410614,-0.025456203147768974,-9.313225746154785e-10,0.0,0.006517589092254639,0.4095061421394348,0.6148563239878635,-0.3787907063961029,0.5583443641662598,-0.37227314710617065,0.6598557829856873,2.5112621784210205,0.9968681335449219,,,,,,,
4587080000.0,88.3,-1.2200000286102295,12041169408.0,1586.9188474189002,48.0,-0.0055786543525755405,200704.0,357.3391160964966,4.6455894686658894e-15,0.0,2.5283968448638916,-0.025283975526690483,0.07310289889574051,-0.025283968076109886,-7.450580596923828e-09,0.0,0.04358880966901779,0.37992241978645325,0.6379648329585825,-0.3507581651210785,0.5036334991455078,-0.3071693480014801,0.6314218044281006,2.5811023712158203,0.9968318939208984,,,,,,,
4587080000.0,87.06,-1.7699999809265137,12041169408.0,1592.411423664656,49.0,-0.013669636100530624,204800.0,359.91131567955017,4.81906181626357e-15,0.0,2.535512924194336,-0.025355126708745956,0.11341290175914764,-0.025355128571391106,1.862645149230957e-09,0.0,-0.04626444727182388,0.4740678071975708,0.5809186273957745,-0.3548671007156372,0.5020869374275208,-0.4011315703392029,0.7323037981987,2.572199583053589,0.9963176250457764,,,,,,,
4587080000.0,81.86,-2.369999885559082,12041169408.0,1679.8215409712864,50.0,-0.015570285730063915,208896.0,362.3496699333191,5.240599620925934e-15,0.0,2.5459558963775635,-0.025459563359618187,0.1433611810207367,-0.02545955777168274,-5.587935447692871e-09,0.0,-0.08331108093261719,0.5290084481239319,0.43977845167434204,-0.30758368968963623,0.4392267167568207,-0.3908947706222534,0.7067775130271912,2.438354253768921,0.9964876174926758,,,,,,,
4587080000.0,79.45,-2.059999942779541,12041169408.0,1676.1938736891464,51.0,-0.008321426808834076,212992.0,364.79330134391785,4.6629367034256575e-15,0.0,2.556699514389038,-0.02556697279214859,0.08233706653118134,-0.02556699514389038,2.2351741790771484e-08,0.0,-0.05234875530004501,0.402459055185318,0.604805585918645,-0.2855220437049866,0.43145501613616943,-0.33787083625793457,0.6402009725570679,2.443631410598755,0.9968395233154297,,,,,,,
4587080000.0,80.45,-1.659999966621399,12041169408.0,1579.4388576911076,52.0,-0.009568477049469948,217088.0,367.3866274356842,4.930084118726086e-15,0.0,2.5784389972686768,-0.025784382596611977,0.1086038202047348,-0.025784390047192574,7.450580596923828e-09,0.0,0.04623410850763321,0.46381306648254395,0.49106630701714815,-0.39070916175842285,0.47973981499671936,-0.3444750905036926,0.6501482725143433,2.5933260917663574,0.9968805313110352,,,,,,,
4587080000.0,82.54,-1.6299999952316284,12041169408.0,1649.3190059734027,53.0,-0.011527201160788536,221184.0,369.87007665634155,5.02549390990481e-15,0.0,2.579413652420044,-0.0257941335439682,0.13447117805480957,-0.02579413540661335,1.862645149230957e-09,0.0,-0.018814580515027046,0.5183184146881104,0.5478780273770343,-0.4592605531215668,0.5198319554328918,-0.47807514667510986,0.7708481550216675,2.4834492206573486,0.9969701766967773,,,,,,,
4587080000.0,82.31,-1.9600000381469727,12041169408.0,1618.4011905795899,54.0,-0.009147675707936287,225280.0,372.40096950531006,4.796510411075872e-15,0.0,2.581360340118408,-0.025813603773713112,0.09844832867383957,-0.025813601911067963,-1.3969838619232178e-09,0.0,0.03325346112251282,0.4425366520881653,0.4352509607515568,-0.39913472533226013,0.4719802141189575,-0.3658812642097473,0.5888727307319641,2.530892848968506,0.9972400665283203,,,,,,,
4587080000.0,79.81,-1.6299999952316284,12041169408.0,1642.1242275481532,55.0,-0.00882950983941555,229376.0,374.89529967308044,5.384581669432009e-15,0.0,2.568577766418457,-0.02568577602505684,0.09625318646430969,-0.025685777887701988,1.862645149230957e-09,0.0,0.032377127557992935,0.4376126825809479,0.576168596031718,-0.4371979236602783,0.4935328960418701,-0.4048207998275757,0.6721920371055603,2.4943301677703857,0.9973134994506836,,,,,,,
4587080000.0,80.63,-1.659999966621399,12041169408.0,1574.412322665341,56.0,-0.012377096340060234,233472.0,377.49690532684326,5.556319293553713e-15,0.0,2.5562376976013184,-0.025562366470694542,0.13341307640075684,-0.025562375783920288,9.313225746154785e-09,0.0,-0.039324164390563965,0.5151160955429077,0.4953388457047212,-0.4552876353263855,0.4796338677406311,-0.49461182951927185,0.7251120805740356,2.6016056537628174,0.9968161582946777,,,,,,,
4587080000.0,84.72,-1.840000033378601,12041169408.0,1556.2594976486535,57.0,-0.007358793169260025,237568.0,380.1288571357727,5.3828469459560324e-15,0.0,2.5361311435699463,-0.02536129578948021,0.08371441066265106,-0.025361310690641403,1.4901161193847656e-08,0.0,0.05408881977200508,0.40563949942588806,0.567624673450815,-0.4401201903820038,0.47390016913414,-0.3860313594341278,0.61689293384552,2.6319518089294434,0.9965522289276123,,,,,,,
4587080000.0,83.75,-1.3600000143051147,12041169408.0,1584.7133205024077,58.0,-0.009670347906649113,241664.0,382.71355175971985,4.727121472036799e-15,0.0,2.520427703857422,-0.02520427107810974,0.09780258685350418,-0.02520427666604519,5.587935447692871e-09,0.0,0.02859458327293396,0.44140127301216125,0.6366528530618103,-0.4106232225894928,0.5216765999794006,-0.38202863931655884,0.7322724461555481,2.5846946239471436,0.996741771697998,,,,,,,
4587080000.0,78.14,-1.350000023841858,12041169408.0,1595.1274875891545,59.0,-0.0054250722751021385,245760.0,385.28137159347534,5.398459457239824e-15,0.0,2.525286912918091,-0.025252876803278923,0.0832248255610466,-0.025252869352698326,-7.450580596923828e-09,0.0,0.04286186024546623,0.40577423572540283,0.4445487023056467,-0.28620022535324097,0.4279063045978546,-0.24333834648132324,0.5444543361663818,2.567819833755493,0.9965698719024658,,,,,,,
4587080000.0,79.2,-1.4600000381469727,12041169408.0,1566.5658011887024,60.0,-0.009478958323597908,249856.0,387.89600801467896,5.85122228446977e-15,0.0,2.491971254348755,-0.02491971105337143,0.09338952600955963,-0.02491971291601658,9.313225746154785e-10,0.0,-0.030876748263835907,0.4311276376247406,0.5620573738188135,-0.28675422072410583,0.420662522315979,-0.31763094663619995,0.6514742374420166,2.6146364212036133,0.9968016147613525,,,,,,,
4587080000.0,80.12,-1.5299999713897705,12041169408.0,1596.4302492197132,61.0,-0.009502360597252846,253952.0,390.4617323875427,6.153064169289735e-15,0.0,2.443143844604492,-0.02443143166601658,0.07448269426822662,-0.024431437253952026,5.587935447692871e-09,0.0,-0.017844103276729584,0.3855946958065033,0.5862637647575701,-0.2764177918434143,0.43780168890953064,-0.2942619323730469,0.5994725227355957,2.5657243728637695,0.996708869934082,,,,,,,
4587080000.0,77.79,-1.590000033378601,12041169408.0,1758.1286884270348,62.0,-0.010427407920360565,258048.0,392.7914822101593,6.7394007041698956e-15,0.0,2.3882932662963867,-0.023882921785116196,0.068912073969841,-0.02388293296098709,1.1175870895385742e-08,0.0,-0.003981659188866615,0.37127071619033813,0.6927153196338962,-0.2935737371444702,0.4725908935070038,-0.29755541682243347,0.669761598110199,2.329749822616577,0.9966351985931396,,,,,,,
4635020000.0,78.99,-1.409999966621399,12041169408.0,1749.7522710796338,63.0,-0.004761241842061281,262144.0,395.13238501548767,6.0663279954908944e-15,0.0,2.3196663856506348,-0.023196659982204437,0.07078909128904343,-0.023196663707494736,3.725290298461914e-09,0.0,0.029570283368229866,0.3751508295536041,0.5955178443945921,-0.22154834866523743,0.4200114607810974,-0.1919780671596527,0.5898699164390564,2.340902805328369,0.9964830875396729,,,,,,,
,,,,,,,,,,,,,,,,,,,,,,,,,,0.017027001827955246,0.17267972230911255,0.10520754009485245,0.017027001827955246,0.17267972230911255,0.10520754009485245,
,,,,,,,,,,,,,,,,,,,,,,,,,,0.004723563324660063,0.1084541380405426,0.09032313525676727,0.004723563324660063,0.1084541380405426,0.09032313525676727,
,,,,,,,,,,,,,,,,,,,,,,,,,,0.0039634439162909985,0.09548044204711914,0.08544950187206268,0.0039634439162909985,0.09548044204711914,0.08544950187206268,
,,,,,,,,,,,,,,,,,,,,,,,,,,0.0035440598148852587,0.08991411328315735,0.08145521581172943,0.0035440598148852587,0.08991411328315735,0.08145521581172943,
,,,,,,,,,,,,,,,,,,,,,,,,,,0.004146939143538475,0.08606980741024017,0.0808677151799202,0.004146939143538475,0.08606980741024017,0.0808677151799202,
,,,,,,,,,,,,,,,,,,,,,,,,,,0.0031069533433765173,0.08103027194738388,0.07424357533454895,0.0031069533433765173,0.08103027194738388,0.07424357533454895,
,,,,,,,,,,,,,,,,,,,,,,,,,,,,,,,,-1.97
4637352000.0,79.38,-0.9399999976158142,11990521856.0,17.041479876002114,64.0,-0.006752840243279934,266240.0,635.4870977401733,5.370703881624195e-15,0.0,2.2008228302001953,-0.022008219733834267,0.06821352988481522,-0.022008227184414864,7.450580596923828e-09,0.0,0.011733585968613625,0.36921897530555725,0.6896833465880928,-0.33266061544418335,0.5279345512390137,-0.3209270238876343,0.6627984642982483,240.35471272468567,0.9966974258422852,,,,,,,
4637352000.0,81.54,-1.0399999618530273,12041169408.0,1617.473096500705,65.0,-0.006070923525840044,270336.0,638.0194427967072,5.658667978636345e-15,0.0,2.16652774810791,-0.021665284410119057,0.07410416752099991,-0.02166527695953846,-7.450580596923828e-09,0.0,0.04008796438574791,0.38293224573135376,0.6436772148163306,-0.38385874032974243,0.5206965804100037,-0.3437708020210266,0.6415051221847534,2.5323450565338135,0.9963648319244385,,,,,,,
4637352000.0,79.44,-1.190000057220459,12041169408.0,1694.3350181476694,66.0,-0.00760160107165575,274432.0,640.4369103908539,5.2284565565940966e-15,0.0,2.1229214668273926,-0.0212292168289423,0.05703222379088402,-0.02122921496629715,-1.862645149230957e-09,0.0,0.052061885595321655,0.3337382376194,0.742474787576327,-0.33618611097335815,0.589049220085144,-0.2841241955757141,0.6576519012451172,2.4174675941467285,0.9962887763977051,,,,,,,
4637352000.0,80.66,-1.5299999713897705,12041169408.0,1671.5401661122714,67.0,-0.011480491608381271,278528.0,642.8873450756073,6.87297441182011e-15,0.0,2.019580125808716,-0.020195800811052322,0.08345960080623627,-0.020195800811052322,0.0,0.0,-0.024797458201646805,0.40785402059555054,0.7069338789216068,-0.3653321862220764,0.5910622477531433,-0.3901296555995941,0.7533936500549316,2.450434684753418,0.9967622756958008,,,,,,,
4637352000.0,81.09,-1.4700000286102295,12041169408.0,1745.5101220037552,68.0,-0.006223118863999844,282624.0,645.2339370250702,7.0637939941775585e-15,0.0,1.9177606105804443,-0.01917761191725731,0.06271576136350632,-0.01917760632932186,-6.51925802230835e-09,0.0,0.01773143745958805,0.3537621796131134,0.6944320698189972,-0.2647067904472351,0.4843672811985016,-0.2469753623008728,0.6399669051170349,2.3465919494628906,0.996649980545044,,,,,,,
4637352000.0,79.9,-1.2100000381469727,12041169408.0,1736.102277615782,69.0,-0.008328820578753948,286720.0,647.5932450294495,7.599823548254392e-15,0.0,1.7764346599578857,-0.01776435784995556,0.07539213448762894,-0.017764346674084663,-1.1175870895385742e-08,0.0,0.017809206619858742,0.38794824481010437,0.7438486984716355,-0.31730127334594727,0.5847317576408386,-0.2994920611381531,0.766523540019989,2.3593080043792725,0.9968981742858887,,,,,,,
4637352000.0,83.62,-1.5,12041169408.0,1797.59522032742,70.0,-0.01008666306734085,290816.0,649.8718447685242,8.975459264704e-15,0.0,1.6088093519210815,-0.01608809269964695,0.078386589884758,-0.01608809269964695,0.0,0.0,0.04288483411073685,0.393664687871933,0.8170274826187343,-0.5411666631698608,0.8077015280723572,-0.4982817769050598,0.9203087687492371,2.278599739074707,0.996812105178833,,,,,,,
4637352000.0,87.13,-1.6399999856948853,12041169408.0,1719.134268610871,71.0,-0.0063456399366259575,294912.0,652.2544393539429,8.423817199343375e-15,0.0,1.609629511833191,-0.016096293926239014,0.05596506968140602,-0.016096293926239014,0.0,0.0,0.03715157508850098,0.33253103494644165,0.8311854585999936,-0.47504109144210815,0.7359064817428589,-0.4378895163536072,0.809333086013794,2.382594585418701,0.9966211318969727,,,,,,,
4637352000.0,88.66,-1.1399999856948853,12041169408.0,1664.1225981432976,72.0,-0.004713116679340601,299008.0,654.7157964706421,9.534040223968532e-15,0.0,1.491734504699707,-0.01491736713796854,0.07114431262016296,-0.01491734478622675,-2.2351741790771484e-08,0.0,0.08971960842609406,0.36643117666244507,0.6475102117349811,-0.34770429134368896,0.5784260630607605,-0.2579846978187561,0.617190420627594,2.4613571166992188,0.9964215755462646,,,,,,,
4637352000.0,86.67,-1.0700000524520874,12041169408.0,1684.9096152874838,73.0,-0.007791411597281694,303104.0,657.146787405014,9.091685737594446e-15,0.0,1.3322229385375977,-0.013322223909199238,0.06372805684804916,-0.013322229497134686,5.587935447692871e-09,0.0,0.04447517171502113,0.35427209734916687,0.7977893585629383,-0.372108519077301,0.6720972061157227,-0.3276333510875702,0.7878344058990479,2.4309909343719482,0.9966771602630615,,,,,,,
4637352000.0,86.14,-1.3600000143051147,12041169408.0,1640.9328157064638,74.0,-0.008040769025683403,307200.0,659.6429286003113,9.18189135834524e-15,0.0,1.3393423557281494,-0.013393416069447994,0.07198688387870789,-0.013393423520028591,7.450580596923828e-09,0.0,-0.006107018794864416,0.3794359266757965,0.7258337589985335,-0.3088485598564148,0.6190361976623535,-0.31495559215545654,0.7246553301811218,2.496141195297241,0.9968576431274414,,,,,,,
4637352000.0,86.79,-1.809999942779541,12041169408.0,1695.2239596371799,75.0,-0.01123766228556633,311296.0,662.0591285228729,1.021405182655144e-14,0.0,1.444394588470459,-0.014443949796259403,0.07924413681030273,-0.01444394513964653,-4.6566128730773926e-09,0.0,-0.060263678431510925,0.39356622099876404,0.8025179918053132,-0.3653193712234497,0.7149379849433899,-0.4255830645561218,0.8856335282325745,2.4161999225616455,0.9965808391571045,,,,,,,
4637352000.0,86.17,-1.6799999475479126,12041169408.0,1751.4979789312968,76.0,-0.0066403476521372795,315392.0,664.3976981639862,9.657205590762885e-15,0.0,1.6653828620910645,-0.016653820872306824,0.06003892421722412,-0.01665382832288742,7.450580596923828e-09,0.0,-0.009466925635933876,0.3464354872703552,0.7049665072584199,-0.22304895520210266,0.5130765438079834,-0.2325158715248108,0.6378031969070435,2.3385696411132812,0.9968571662902832,,,,,,,
4637352000.0,89.02,-1.3899999856948853,12041169408.0,1738.4975385095822,77.0,-0.008913872763514519,319488.0,666.753755569458,9.43689570931383e-15,0.0,1.6420674324035645,-0.016420669853687286,0.09906693547964096,-0.016420673578977585,3.725290298461914e-09,0.0,-0.029622722417116165,0.44418975710868835,0.6518467898873355,-0.43253272771835327,0.6314864754676819,-0.46215546131134033,0.7528064846992493,2.3560574054718018,0.9969460964202881,,,,,,,
4637352000.0,87.42,-1.3799999952316284,12041169408.0,1750.3257621488867,78.0,-0.0094122514128685,323584.0,669.0938913822174,8.751679936302992e-15,0.0,1.732749104499817,-0.01732749119400978,0.051712192595005035,-0.01732749119400978,0.0,0.0,-0.001514878822490573,0.3216322958469391,0.8041676168954125,-0.3387305736541748,0.6733890771865845,-0.34024545550346375,0.7268041968345642,2.3401358127593994,0.9966566562652588,,,,,,,
4637352000.0,84.09,-1.6100000143051147,12041169408.0,1741.7176471709392,79.0,-0.005966796539723873,327680.0,671.445592880249,8.283304597789254e-15,0.0,1.9043550491333008,-0.019043542444705963,0.058646026998758316,-0.01904354989528656,6.51925802230835e-09,0.0,0.020335189998149872,0.3419167697429657,0.6908241461163682,-0.2779420018196106,0.5097982883453369,-0.2576068043708801,0.6149185299873352,2.351701498031616,0.9967138767242432,,,,,,,
4637352000.0,78.25,-0.8399999737739563,12041169408.0,1687.5190985789764,80.0,-0.005623615346848965,331776.0,673.8728246688843,7.320533068622126e-15,0.0,2.073214530944824,-0.020732160657644272,0.060606732964515686,-0.020732145756483078,-1.4901161193847656e-08,0.0,0.05696101486682892,0.34350794553756714,0.7701552750357701,-0.3245837092399597,0.6158881187438965,-0.267622709274292,0.7165055274963379,2.427231788635254,0.9968929290771484,,,,,,,
4637352000.0,78.24,-0.949999988079071,12041169408.0,1726.7826310879727,81.0,-0.005265518557280302,335872.0,676.2448661327362,7.552986014403018e-15,0.0,2.1144204139709473,-0.021144194528460503,0.08720365911722183,-0.02114420384168625,9.313225746154785e-09,0.0,0.04702095687389374,0.41501614451408386,0.7006205381251082,-0.40118980407714844,0.6434893012046814,-0.3541688621044159,0.7584972381591797,2.3720414638519287,0.99637770652771,,,,,,,
4637352000.0,77.74,-1.4199999570846558,12041169408.0,1728.6271370164775,82.0,-0.009709324687719345,339968.0,678.6143765449524,6.841749389252527e-15,0.0,2.1675093173980713,-0.021675091236829758,0.083263099193573,-0.021675093099474907,1.862645149230957e-09,0.0,0.028347942978143692,0.4071401059627533,0.6878156952309415,-0.42853647470474243,0.6890242695808411,-0.4001885652542114,0.7286826372146606,2.3695104122161865,0.996649980545044,,,,,,,
4637352000.0,77.82,-1.440000057220459,12041169408.0,1765.3721551011474,83.0,-0.008879264816641808,344064.0,680.9345672130585,6.347353198599137e-15,0.0,2.2640185356140137,-0.022640187293291092,0.07854762673377991,-0.022640185430645943,-1.862645149230957e-09,0.0,0.022099170833826065,0.3957841694355011,0.7724136357960492,-0.3247871696949005,0.7353560328483582,-0.30268800258636475,0.8296316266059875,2.320190668106079,0.9969031810760498,,,,,,,
4637352000.0,79.88,-1.309999942779541,12041169408.0,1767.4717075316164,84.0,-0.009005898609757423,348160.0,683.2520017623901,6.484396353201305e-15,0.0,2.3209681510925293,-0.023209676146507263,0.08241170644760132,-0.02320968173444271,5.587935447692871e-09,0.0,-0.0081694470718503,0.4059518575668335,0.7403180816359525,-0.28929057717323303,0.6533520817756653,-0.29746004939079285,0.7966245412826538,2.317434549331665,0.99676513671875,,,,,,,
4637352000.0,80.93,-1.149999976158142,12041169408.0,1771.4087079320739,85.0,-0.00577749777585268,352256.0,685.5642857551575,5.5701970813615276e-15,0.0,2.3711187839508057,-0.023711195215582848,0.051371727138757706,-0.02371118776500225,-7.450580596923828e-09,0.0,0.011066658422350883,0.3203842341899872,0.7585811464172815,-0.21657031774520874,0.5847272872924805,-0.2055036723613739,0.6520569324493408,2.312283992767334,0.9969704151153564,,,,,,,
4637352000.0,76.45,-0.9399999976158142,12041169408.0,1692.7992505118589,86.0,-0.006387439556419849,356352.0,687.9839465618134,6.104491911962384e-15,0.0,2.4256742000579834,-0.024256745353341103,0.05005057901144028,-0.024256741628050804,-3.725290298461914e-09,0.0,0.02776983380317688,0.31520509719848633,0.7795238866002642,-0.11945407092571259,0.5819961428642273,-0.0916842371225357,0.6712935566902161,2.419660806655884,0.9973511695861816,,,,,,,
4637352000.0,76.79,-1.2100000381469727,12041169408.0,1769.1686125266742,87.0,-0.009889478795230389,360448.0,690.299158334732,5.910202882652982e-15,0.0,2.4439022541046143,-0.024439020082354546,0.07328915596008301,-0.024439021944999695,1.862645149230957e-09,0.0,-0.028212815523147583,0.3818611800670624,0.6971931911804965,-0.17804935574531555,0.5711487531661987,-0.20626218616962433,0.6939411759376526,2.315211772918701,0.9970109462738037,,,,,,,
4637352000.0,81.08,-1.4700000286102295,12041169408.0,1734.4242302727175,88.0,-0.007366626989096403,364544.0,692.6607489585876,5.5198901005582e-15,0.0,2.4590706825256348,-0.02459070086479187,0.09256500005722046,-0.024590706452727318,6.51925802230835e-09,0.0,-0.05760105326771736,0.42644640803337097,0.535030765316683,-0.12887147068977356,0.45627522468566895,-0.18647253513336182,0.6253920197486877,2.361590623855591,0.9969415664672852,,,,,,,
4637352000.0,80.49,-1.2400000095367432,12041169408.0,1748.655538699935,89.0,-0.006289327517151833,368640.0,695.0031199455261,5.037636974236648e-15,0.0,2.5117111206054688,-0.025117117911577225,0.06200169771909714,-0.025117110460996628,-7.450580596923828e-09,0.0,-0.033183809369802475,0.3506169319152832,0.7202183474161589,-0.15690115094184875,0.5184234976768494,-0.19008496403694153,0.6628623008728027,2.3423709869384766,0.9968397617340088,,,,,,,
4637352000.0,78.02,-1.1399999856948853,12041169408.0,1686.6443438864274,90.0,-0.010656866244971752,372736.0,697.431610584259,5.6343818499726694e-15,0.0,2.5213141441345215,-0.02521313726902008,0.08761321008205414,-0.02521314099431038,3.725290298461914e-09,0.0,-0.06408081948757172,0.413717120885849,0.6330280188555583,-0.18236519396305084,0.5022201538085938,-0.24644601345062256,0.6829470992088318,2.42849063873291,0.9967546463012695,,,,,,,
4637352000.0,76.95,-1.409999966621399,12041169408.0,1694.7287993041102,91.0,-0.004853026010096073,376832.0,699.8485164642334,5.5806054222173884e-15,0.0,2.525231122970581,-0.02525230683386326,0.061373092234134674,-0.025252310559153557,3.725290298461914e-09,0.0,0.03655252233147621,0.34848207235336304,0.6888867058757304,-0.25355809926986694,0.5552529692649841,-0.21700559556484222,0.6247713565826416,2.4169058799743652,0.9970889091491699,,,,,,,
4637352000.0,80.7,-1.2300000190734863,12041169408.0,1709.965640576619,92.0,-0.008260305039584637,380928.0,702.2438862323761,5.278763537397424e-15,0.0,2.5284297466278076,-0.0252843014895916,0.08675465732812881,-0.0252842977643013,-3.725290298461914e-09,0.0,0.0012760646641254425,0.41659340262413025,0.7484982203186445,-0.3794409930706024,0.6942881345748901,-0.3781649172306061,0.8306955099105835,2.3953697681427,0.9970617294311523,,,,,,,
4637352000.0,77.59,-1.1399999856948853,12041169408.0,1706.7815561277102,93.0,-0.008523465134203434,385024.0,704.6437246799469,5.160802341031001e-15,0.0,2.5265517234802246,-0.025265516713261604,0.08807489275932312,-0.025265516713261604,0.0,0.0,0.01721775345504284,0.4193998873233795,0.6055260970805239,-0.3603554964065552,0.5836167335510254,-0.3431377410888672,0.6677581667900085,2.399838447570801,0.9970014095306396,,,,,,,
4637352000.0,76.8,-1.2699999809265137,12041169408.0,1739.3275983681783,94.0,-0.009635644033551216,389120.0,706.9986577033997,5.046310591616532e-15,0.0,2.5089259147644043,-0.025089258328080177,0.09579036384820938,-0.025089258328080177,0.0,0.0,-0.0008710846304893494,0.4377519488334656,0.6973241451707202,-0.37958091497421265,0.6425063610076904,-0.3804520070552826,0.7956812977790833,2.354933023452759,0.9967939853668213,,,,,,,
4637352000.0,77.69,-1.4700000286102295,12041169408.0,1708.2166027190879,95.0,-0.00769218523055315,393216.0,709.3964800834656,5.344683029484543e-15,0.0,2.4804296493530273,-0.02480430155992508,0.07824107259511948,-0.02480429597198963,-5.587935447692871e-09,0.0,0.047735124826431274,0.39273548126220703,0.7780124313352939,-0.4337306022644043,0.7582449913024902,-0.38599544763565063,0.8335579633712769,2.397822380065918,0.9965946674346924,,,,,,,
,,,,,,,,,,,,,,,,,,,,,,,,,,0.002924154279753566,0.08979613333940506,0.07729408890008926,0.002924154279753566,0.08979613333940506,0.07729408890008926,
,,,,,,,,,,,,,,,,,,,,,,,,,,0.0025093709118664265,0.07298989593982697,0.0664202943444252,0.0025093709118664265,0.07298989593982697,0.0664202943444252,
,,,,,,,,,,,,,,,,,,,,,,,,,,0.002022505272179842,0.06686003506183624,0.061735160648822784,0.002022505272179842,0.06686003506183624,0.061735160648822784,
,,,,,,,,,,,,,,,,,,,,,,,,,,0.0017507299780845642,0.06332968920469284,0.058278799057006836,0.0017507299780845642,0.06332968920469284,0.058278799057006836,
,,,,,,,,,,,,,,,,,,,,,,,,,,0.0017882833490148187,0.06077943742275238,0.05672566592693329,0.0017882833490148187,0.06077943742275238,0.05672566592693329,
,,,,,,,,,,,,,,,,,,,,,,,,,,0.002229053759947419,0.05896192044019699,0.0549413226544857,0.002229053759947419,0.05896192044019699,0.0549413226544857,
,,,,,,,,,,,,,,,,,,,,,,,,,,,,,,,,-2.3
4637664000.0,80.64,-1.2699999809265137,11990521856.0,17.055322571534113,96.0,-0.007331061642616987,397312.0,949.5561125278473,6.513886652292911e-15,0.0,2.469554901123047,-0.02469554916024208,0.08066622912883759,-0.02469554916024208,0.0,0.0,0.02405456081032753,0.4009900987148285,0.7333680440277475,-0.30429649353027344,0.6594073176383972,-0.2802419066429138,0.7765645384788513,240.1596324443817,0.9968023300170898,,,,,,,
4637664000.0,81.61,-1.2000000476837158,12041169408.0,1701.821823445637,97.0,-0.008073002099990845,401408.0,951.962944984436,6.1999017031411086e-15,0.0,2.486757516860962,-0.024867570027709007,0.062492989003658295,-0.024867573752999306,3.725290298461914e-09,0.0,-0.002419360913336277,0.3535684049129486,0.7674652568279772,-0.2248987853527069,0.5960408449172974,-0.22731813788414001,0.7332119941711426,2.406832456588745,0.9963562488555908,,,,,,,
4637664000.0,80.12,-1.4500000476837158,12041169408.0,1721.8495434808906,98.0,-0.009414736181497574,405504.0,954.3417823314667,6.314393452555578e-15,0.0,2.481442928314209,-0.02481442503631115,0.07477076351642609,-0.024814428761601448,3.725290298461914e-09,0.0,0.031825631856918335,0.38544121384620667,0.7769152386196395,-0.3401564955711365,0.734063446521759,-0.30833086371421814,0.8160621523857117,2.3788373470306396,0.9966397285461426,,,,,,,
4637664000.0,80.95,-1.2799999713897705,12041169408.0,1703.9654975106343,99.0,-0.005266573280096054,409600.0,956.7455868721008,6.279698983036042e-15,0.0,2.483513832092285,-0.024835137650370598,0.06503620743751526,-0.024835137650370598,0.0,0.0,0.016518283635377884,0.3603210151195526,0.7381956966231694,-0.31355929374694824,0.5922675728797913,-0.29704102873802185,0.7042084336280823,2.4038045406341553,0.9969921112060547,,,,,,,
4637664000.0,78.35,-1.100000023841858,12041169408.0,1720.8331764738878,100.0,-0.008942684158682823,413696.0,959.1258292198181,6.251943407420413e-15,0.0,2.4943575859069824,-0.024943578988313675,0.05529186129570007,-0.024943575263023376,-2.7939677238464355e-09,0.0,-0.020238636061549187,0.3319653868675232,0.7955417632400834,-0.24270200729370117,0.6161472797393799,-0.2629406452178955,0.7341595888137817,2.380242347717285,0.9968135356903076,,,,,,,
4637664000.0,78.66,-1.309999942779541,12041169408.0,1708.735312795929,101.0,-0.0087078046053648,417792.0,961.522923707962,6.206840597045016e-15,0.0,2.515288829803467,-0.025152888149023056,0.06564073264598846,-0.025152888149023056,0.0,0.0,-0.023308996111154556,0.3616214990615845,0.764816304291204,-0.23757916688919067,0.6275929808616638,-0.26088815927505493,0.7456767559051514,2.397094488143921,0.9965739250183105,,,,,,,
4637664000.0,82.29,-1.2300000190734863,12041169408.0,1710.1006183882407,102.0,-0.007978253066539764,421888.0,963.9181044101715,5.924080670460796e-15,0.0,2.5108447074890137,-0.025108447298407555,0.06413884460926056,-0.025108447298407555,0.0,0.0,-0.004648116417229176,0.35817232728004456,0.7638583345136343,-0.29584187269210815,0.6259610652923584,-0.30048999190330505,0.737064778804779,2.3951807022094727,0.996586799621582,,,,,,,
4637664000.0,79.01,-1.2599999904632568,12041169408.0,1622.725468841828,103.0,-0.006393729243427515,425984.0,966.4422528743744,5.098352295895836e-15,0.0,2.517226219177246,-0.025172259658575058,0.0627938061952591,-0.025172261521220207,9.313225746154785e-10,0.0,0.030919784680008888,0.3530750870704651,0.7091502036632185,-0.23548823595046997,0.5693683624267578,-0.20456844568252563,0.6546854376792908,2.524148464202881,0.9967224597930908,,,,,,,
4637664000.0,79.3,-0.9100000262260437,12041169408.0,1628.5028062501997,104.0,-0.004802111070603132,430080.0,968.9574465751648,5.809588921046327e-15,0.0,2.524210214614868,-0.02524210885167122,0.07551857829093933,-0.025242101401090622,-7.450580596923828e-09,0.0,0.015180855989456177,0.3883858025074005,0.7298417303426915,-0.26898670196533203,0.6075512170791626,-0.25380584597587585,0.7472298741340637,2.5151937007904053,0.9971022605895996,,,,,,,
4637664000.0,84.0,-1.159999966621399,12041169408.0,1653.663222471279,105.0,-0.00998041220009327,434176.0,971.4343717098236,6.34041430469523e-15,0.0,2.505638599395752,-0.025056378915905952,0.05150988698005676,-0.0250563845038414,5.587935447692871e-09,0.0,0.00778557825833559,0.3209116756916046,0.8692241416742879,-0.42744722962379456,0.8037023544311523,-0.41966164112091064,0.8874046802520752,2.4769251346588135,0.9964897632598877,,,,,,,
4637664000.0,82.93,-1.2000000476837158,12041169408.0,1593.0621692145346,106.0,-0.007273527793586254,438272.0,974.0055205821991,5.662137425588298e-15,0.0,2.5212392807006836,-0.025212392210960388,0.0872708335518837,-0.025212392210960388,0.0,0.0,0.012438114732503891,0.41764765977859497,0.7273051481509674,-0.26023679971694946,0.6421853303909302,-0.24779869616031647,0.7997819185256958,2.5711488723754883,0.9967241287231445,,,,,,,
4637664000.0,80.24,-1.25,12041169408.0,1661.8571931443903,107.0,-0.009133568033576012,442368.0,976.470232963562,6.113165529342268e-15,0.0,2.4909725189208984,-0.024909717962145805,0.07998356223106384,-0.024909725412726402,7.450580596923828e-09,0.0,0.01584230735898018,0.3996938169002533,0.7660586259213136,-0.37641674280166626,0.7604337930679321,-0.36057448387145996,0.8263688683509827,2.464712381362915,0.9964005947113037,,,,,,,
4637664000.0,78.84,-1.8600000143051147,12041169408.0,1713.3924565278207,108.0,-0.011221824213862419,446464.0,978.8608119487762,6.369904603786836e-15,0.0,2.4975028038024902,-0.024975039064884186,0.08907794952392578,-0.02497502788901329,-1.1175870895385742e-08,0.0,0.0062558772042393684,0.4220903217792511,0.7849649806763733,-0.36815929412841797,0.7637650370597839,-0.3619033694267273,0.9102293252944946,2.3905789852142334,0.9967329502105713,,,,,,,
4637664000.0,78.89,-1.409999966621399,12041169408.0,1665.869039394224,109.0,-0.0074090207926929,450560.0,981.3195886611938,6.13918638148192e-15,0.0,2.498614549636841,-0.0249861478805542,0.07387207448482513,-0.0249861441552639,-3.725290298461914e-09,0.0,0.027102146297693253,0.3834651708602905,0.7969314442942536,-0.3531215786933899,0.8204740881919861,-0.32601943612098694,0.8509510159492493,2.4587767124176025,0.9969875812530518,,,,,,,
4637664000.0,78.65,-1.2000000476837158,12041169408.0,1638.9053120492797,110.0,-0.006922054570168257,454656.0,983.8188178539276,6.34041430469523e-15,0.0,2.4721648693084717,-0.024721652269363403,0.06840219348669052,-0.024721648544073105,-3.725290298461914e-09,0.0,0.04169691354036331,0.3675577938556671,0.7352449045076361,-0.26473408937454224,0.7034235000610352,-0.22303719818592072,0.7143375277519226,2.4992291927337646,0.996469259262085,,,,,,,
4637664000.0,74.61,-1.2400000095367432,12041169408.0,1684.24905194095,111.0,-0.011511499062180519,458752.0,986.2507622241974,6.545111674860493e-15,0.0,2.4473533630371094,-0.024473536759614944,0.08018006384372711,-0.024473533034324646,-2.7939677238464355e-09,0.0,0.017084363847970963,0.4001341164112091,0.7340654387833669,-0.28041380643844604,0.740157961845398,-0.2633294463157654,0.7759223580360413,2.4319443702697754,0.9970419406890869,,,,,,,
4637664000.0,75.87,-1.5199999809265137,12041169408.0,1658.8238061760662,112.0,-0.007557755336165428,462848.0,988.7199816703796,6.886852199627924e-15,0.0,2.437328577041626,-0.024373279884457588,0.06697613000869751,-0.024373285472393036,5.587935447692871e-09,0.0,0.01285707950592041,0.36581364274024963,0.7612371530051752,-0.20446708798408508,0.6803035736083984,-0.19161002337932587,0.7486459612846375,2.469219446182251,0.9970452785491943,,,,,,,
4637664000.0,80.86,-1.25,12041169408.0,1696.5233531970277,113.0,-0.0068208822049200535,466944.0,991.1343309879303,6.914607775243553e-15,0.0,2.4231414794921875,-0.024231422692537308,0.04819294065237045,-0.02423141337931156,-9.313225746154785e-09,0.0,0.018505342304706573,0.30994659662246704,0.8409020972367278,-0.16512298583984375,0.7123630046844482,-0.14661765098571777,0.7770601511001587,2.414349317550659,0.9963903427124023,,,,,,,
4637664000.0,80.08,-0.800000011920929,12041169408.0,1710.3086587075982,114.0,-0.002981471363455057,471040.0,993.5292203426361,6.4618449480136064e-15,0.0,2.4312548637390137,-0.024312550202012062,0.04090431332588196,-0.024312548339366913,-1.862645149230957e-09,0.0,-0.010663604363799095,0.285858154296875,0.7902318299448658,-0.08890663832426071,0.5778148174285889,-0.09957023710012436,0.6241381168365479,2.3948893547058105,0.9968411922454834,,,,,,,
4637664000.0,76.88,-0.9100000262260437,12041169408.0,1635.699770067228,115.0,-0.008955636993050575,475136.0,996.0333473682404,7.42114703022878e-15,0.0,2.4080100059509277,-0.02408011071383953,0.05072538182139397,-0.024080099537968636,-1.1175870895385742e-08,0.0,-0.04224829003214836,0.3157375454902649,0.7844971916093801,-0.16676664352416992,0.5414036512374878,-0.2090149223804474,0.6801422834396362,2.504127025604248,0.9965708255767822,,,,,,,
4637664000.0,76.45,-0.75,12041169408.0,1479.4594423945518,116.0,-0.0028668856248259544,479232.0,998.8019261360168,7.53563877964325e-15,0.0,2.431626319885254,-0.02431626245379448,0.04942483454942703,-0.02431626245379448,0.0,0.0,-0.001057751476764679,0.3144402801990509,0.6717870004403894,-0.05112595856189728,0.42547085881233215,-0.05218371003866196,0.5488584041595459,2.7685787677764893,0.996959924697876,,,,,,,
4637664000.0,77.21,-0.6600000262260437,12041169408.0,1577.4915750014347,117.0,-0.006990522146224976,483328.0,1001.3984534740448,7.754213937616328e-15,0.0,2.4066848754882812,-0.024066852405667305,0.046370480209589005,-0.024066848680377007,-3.725290298461914e-09,0.0,-0.052980780601501465,0.2999265789985657,0.7724622589728476,-0.09604265540838242,0.49497389793395996,-0.14902342855930328,0.628764808177948,2.596527338027954,0.9968829154968262,,,,,,,
4637664000.0,77.47,-0.7900000214576721,12041169408.0,1538.6700079406007,118.0,-0.00312618725001812,487424.0,1004.0604927539825,7.599823548254392e-15,0.0,2.3917248249053955,-0.023917244747281075,0.03657737001776695,-0.023917248472571373,3.725290298461914e-09,0.0,0.009680083021521568,0.2703310251235962,0.7403119960726932,-0.08666643500328064,0.42982566356658936,-0.07698635011911392,0.5304811000823975,2.662039279937744,0.9966928958892822,,,,,,,
4637664000.0,80.24,-0.47999998927116394,12041169408.0,1609.9369649589585,119.0,-0.002629812341183424,491520.0,1006.6046917438507,8.488001967954517e-15,0.0,2.3604671955108643,-0.023604679852724075,0.059243474155664444,-0.02360467053949833,-9.313225746154785e-09,0.0,0.007836857810616493,0.3441721200942993,0.658865693408114,-0.05403153970837593,0.5071612596511841,-0.04619468003511429,0.5892682075500488,2.544198989868164,0.9966113567352295,,,,,,,
4637664000.0,77.89,-0.27000001072883606,12041169408.0,1707.21999406344,120.0,-0.0015051027294248343,495616.0,1009.0039138793945,8.866171685717461e-15,0.0,2.323958396911621,-0.023239579051733017,0.052144505083560944,-0.023239582777023315,3.725290298461914e-09,0.0,0.015817323699593544,0.3225898742675781,0.7271489041757044,-0.08133827894926071,0.5275041460990906,-0.06552095711231232,0.6175723671913147,2.3992221355438232,0.9968390464782715,,,,,,,
4637664000.0,75.51,-0.3199999928474426,12041169408.0,1733.2039289348695,121.0,-0.0018851151689887047,499712.0,1011.3671672344208,9.077807949786632e-15,0.0,2.3513784408569336,-0.023513782769441605,0.049117524176836014,-0.023513784632086754,2.7939677238464355e-09,0.0,0.0028898257296532393,0.3134496510028839,0.7058938592367439,-0.07321354746818542,0.513594925403595,-0.07032371312379837,0.5779839158058167,2.363253355026245,0.9963817596435547,,,,,,,
4637664000.0,75.97,-0.2199999988079071,12041169408.0,1677.7856638861895,122.0,-0.001761091873049736,503808.0,1013.8084802627563,9.80118763926896e-15,0.0,2.2820074558258057,-0.022820062935352325,0.0658559799194336,-0.02282007411122322,1.1175870895385742e-08,0.0,0.02479361742734909,0.362117737531662,0.7595926432778423,-0.167816162109375,0.635133683681488,-0.1430225372314453,0.7385432124137878,2.4413130283355713,0.9969687461853027,,,,,,,
4637664000.0,74.11,-0.20999999344348907,12041169408.0,1669.1210625250903,123.0,-0.0008824494434520602,507904.0,1016.2624664306641,9.247810850432359e-15,0.0,2.29500675201416,-0.022950077429413795,0.035845495760440826,-0.0229500662535429,-1.1175870895385742e-08,0.0,0.0021964432671666145,0.26777544617652893,0.7189926722745559,-0.06802672892808914,0.45988407731056213,-0.0658302828669548,0.5051401257514954,2.453986167907715,0.9969725608825684,,,,,,,
4637664000.0,77.09,-0.4300000071525574,12041169408.0,1689.4195102494853,124.0,-0.0046698106452822685,512000.0,1018.6869678497314,1.1471726346634625e-14,0.0,2.23051381111145,-0.022305136546492577,0.03608117252588272,-0.022305138409137726,1.862645149230957e-09,0.0,-0.019722310826182365,0.2679382264614105,0.8611680381384679,-0.12054842710494995,0.6004664897918701,-0.14027073979377747,0.7191011309623718,2.424501419067383,0.9964673519134521,,,,,,,
4637664000.0,79.33,-0.5699999928474426,12041169408.0,1641.2983995881245,125.0,-0.002908688969910145,516096.0,1021.1825530529022,1.2496947920936918e-14,0.0,2.212653875350952,-0.022126538679003716,0.04875405877828598,-0.022126538679003716,0.0,0.0,-0.00884312391281128,0.3121757507324219,0.6787976561578857,-0.12251076102256775,0.4686950445175171,-0.13135388493537903,0.5508201718330383,2.4955852031707764,0.996941328048706,,,,,,,
4637664000.0,77.63,-0.05999999865889549,12041169408.0,1562.081357780911,126.0,0.0032955300994217396,520192.0,1023.8046956062317,1.1352030426792226e-14,0.0,2.2555315494537354,-0.022555317729711533,0.024905506521463394,-0.022555315867066383,-2.7939677238464355e-09,0.0,0.022023744881153107,0.22212161123752594,0.7331879077449182,0.03233698382973671,0.40615665912628174,0.05436072498559952,0.43001943826675415,2.6221425533294678,0.9970600605010986,,,,,,,
4637664000.0,79.28,-0.09000000357627869,12041169408.0,1663.2041343038852,127.0,-0.0030483219306916,524288.0,1026.2674119472504,1.1301723445988898e-14,0.0,2.254622459411621,-0.02254622057080269,0.03503083437681198,-0.022546224296092987,3.725290298461914e-09,0.0,-0.021157730370759964,0.26387691497802734,0.8052547812074871,-0.06184559315443039,0.49497348070144653,-0.08300331979990005,0.597954273223877,2.4627163410186768,0.9966559410095215,,,,,,,
,,,,,,,,,,,,,,,,,,,,,,,,,,0.014256410300731659,0.09471752494573593,0.06938071548938751,0.014256410300731659,0.09471752494573593,0.06938071548938751,
,,,,,,,,,,,,,,,,,,,,,,,,,,0.006529628299176693,0.06916230171918869,0.0642504096031189,0.006529628299176693,0.06916230171918869,0.0642504096031189,
,,,,,,,,,,,,,,,,,,,,,,,,,,0.005244414787739515,0.06302883476018906,0.05894327163696289,0.005244414787739515,0.06302883476018906,0.05894327163696289,
,,,,,,,,,,,,,,,,,,,,,,,,,,0.004755005240440369,0.05969976633787155,0.05467110499739647,0.004755005240440369,0.05969976633787155,0.05467110499739647,
,,,,,,,,,,,,,,,,,,,,,,,,,,0.004661321174353361,0.0578652024269104,0.05472879856824875,0.004661321174353361,0.0578652024269104,0.05472879856824875,
,,,,,,,,,,,,,,,,,,,,,,,,,,0.0038499291986227036,0.05466475710272789,0.05134030804038048,0.0038499291986227036,0.05466475710272789,0.05134030804038048,
,,,,,,,,,,,,,,,,,,,,,,,,,,,,,,,,0.14
4637936000.0,79.7,-0.38999998569488525,11990521856.0,17.01471985522855,128.0,-0.002926505170762539,528384.0,1267.0001442432404,8.640657633840476e-15,0.0,2.313154697418213,-0.023131534457206726,0.04969438910484314,-0.02313154563307762,1.1175870895385742e-08,0.0,0.049398038536310196,0.31140372157096863,0.7412024159897719,-0.22993412613868713,0.5758017897605896,-0.18053609132766724,0.6121300458908081,240.73273229599,0.9968113899230957,,,,,,,
4637936000.0,83.24,-0.3499999940395355,12041169408.0,1720.3160543059248,129.0,-0.0002548025222495198,532480.0,1269.3811020851135,9.648531973383001e-15,0.0,2.301651954650879,-0.023016514256596565,0.05609043687582016,-0.023016519844532013,5.587935447692871e-09,0.0,0.05667025223374367,0.33014538884162903,0.808777961062181,-0.19489336013793945,0.6845229268074036,-0.1382230967283249,0.7549813985824585,2.380957841873169,0.9970691204071045,,,,,,,
4637936000.0,86.5,-0.18000000715255737,12041169408.0,1729.4888842245352,130.0,0.0007656185189262033,536576.0,1271.749431848526,9.284240043427872e-15,0.0,2.359752655029297,-0.023597536608576775,0.04362400621175766,-0.02359752543270588,-1.1175870895385742e-08,0.0,0.07874614745378494,0.28472238779067993,0.6802878697692125,-0.10497403144836426,0.48755943775177,-0.026227887719869614,0.5035493969917297,2.3683297634124756,0.997114896774292,,,,,,,
4637936000.0,86.78,-0.03999999910593033,12041169408.0,1715.4137977034447,131.0,-0.0020440483931452036,540672.0,1274.1371939182281,9.185360805297194e-15,0.0,2.364781618118286,-0.023647813126444817,0.03779705613851547,-0.023647814989089966,1.862645149230957e-09,0.0,0.06198688596487045,0.2678978443145752,0.879947478551963,-0.24568119645118713,0.758251965045929,-0.18369430303573608,0.7731853127479553,2.3877620697021484,0.9966673851013184,,,,,,,
4637936000.0,86.98,-0.3199999928474426,12041169408.0,1719.3142289847763,132.0,-0.003325126599520445,544768.0,1276.519539117813,9.011888457699513e-15,0.0,2.34904146194458,-0.02349041774868965,0.05765766277909279,-0.023490414023399353,-3.725290298461914e-09,0.0,0.004358802922070026,0.3395945727825165,0.7663814052582723,-0.14625456929206848,0.6171214580535889,-0.14189577102661133,0.7025982141494751,2.382345199584961,0.9979751110076904,,,,,,,
4637936000.0,88.25,-0.4699999988079071,12041169408.0,1742.5458366581083,133.0,-0.001537770265713334,548864.0,1278.870122909546,9.086481567166516e-15,0.0,2.33272647857666,-0.023327261209487915,0.04040221869945526,-0.023327264934778214,3.725290298461914e-09,0.0,0.008939024992287159,0.28415530920028687,0.6100831555055595,-0.023074857890605927,0.36011460423469543,-0.014135831035673618,0.4550611674785614,2.350583791732788,0.9969024658203125,,,,,,,
4637936000.0,85.3,-0.05999999865889549,12041169408.0,1707.6362520219939,134.0,0.0011557434918358922,552960.0,1281.2687602043152,9.794248745365053e-15,0.0,2.3552637100219727,-0.02355263940989971,0.04077896103262901,-0.023552635684609413,-3.725290298461914e-09,0.0,0.039871953427791595,0.2828209102153778,0.6738269231315235,-0.03594689816236496,0.4242148995399475,0.00392505619674921,0.495207816362381,2.398637294769287,0.9968469142913818,,,,,,,
4637936000.0,82.83,-0.019999999552965164,12041169408.0,1670.9233569436537,135.0,-0.0015434839297086,557056.0,1283.7200994491577,9.46465128492946e-15,0.0,2.3723702430725098,-0.023723701015114784,0.05436734855175018,-0.023723701015114784,0.0,0.0,-0.015066973865032196,0.3294452726840973,0.7069348069988703,-0.01551198773086071,0.494939386844635,-0.030578963458538055,0.608556866645813,2.4513392448425293,0.997398853302002,,,,,,,
4637936000.0,82.5,-0.09000000357627869,12041169408.0,1712.0027838692633,136.0,-0.0010314865503460169,561152.0,1286.1126189231873,9.279035872999941e-15,0.0,2.367155075073242,-0.023671550676226616,0.030418097972869873,-0.023671550676226616,0.0,0.0,-0.015048841945827007,0.24622048437595367,0.7215410275520044,0.01647607609629631,0.390938401222229,0.001427232287824154,0.4665987491607666,2.392519474029541,0.9969899654388428,,,,,,,
4637936000.0,82.89,0.09000000357627869,12041169408.0,1703.059600997259,137.0,0.0009034247486852109,565248.0,1288.5177021026611,9.305056725139593e-15,0.0,2.405031204223633,-0.02405032329261303,0.03560079261660576,-0.024050312116742134,-1.1175870895385742e-08,0.0,0.007305842824280262,0.26676878333091736,0.8295880656339959,-0.018189948052167892,0.5539804697036743,-0.010884108021855354,0.6462268233299255,2.405083179473877,0.9967172145843506,,,,,,,
4637936000.0,86.44,-0.18000000715255737,12041169408.0,1656.3511120872324,138.0,-0.003877989947795868,569344.0,1290.9906077384949,9.62771529167128e-15,0.0,2.362727165222168,-0.023627275601029396,0.04922099784016609,-0.023627271875739098,-3.725290298461914e-09,0.0,-0.01958082988858223,0.3131812810897827,0.6968636653147415,-0.031307801604270935,0.4546038508415222,-0.050888631492853165,0.5688225626945496,2.4729056358337402,0.9969351291656494,,,,,,,
4637936000.0,87.93,-0.25,12041169408.0,1627.50064906319,139.0,0.000777196604758501,573440.0,1293.5073502063751,9.764758446273447e-15,0.0,2.3663477897644043,-0.023663481697440147,0.024951893836259842,-0.02366347797214985,-3.725290298461914e-09,0.0,-0.003940220456570387,0.2233840674161911,0.8294601376017592,0.014731532894074917,0.46141454577445984,0.010791312903165817,0.5409277081489563,2.516742467880249,0.9971024990081787,,,,,,,
4637936000.0,87.46,-0.12999999523162842,12041169408.0,1685.5799581250872,140.0,-0.00038904452230781317,577536.0,1295.9373743534088,1.0432626984524518e-14,0.0,2.305850028991699,-0.02305850014090538,0.0516798198223114,-0.02305850014090538,0.0,0.0,-0.027960818260908127,0.3203168511390686,0.8027968775631363,-0.006891919299960136,0.5946664214134216,-0.034852735698223114,0.7213115692138672,2.4300241470336914,0.9971714019775391,,,,,,,
4637936000.0,79.51,0.009999999776482582,12041169408.0,1664.10631763692,141.0,0.0009095818968489766,581632.0,1298.3987555503845,1.0276501871686605e-14,0.0,2.33528470993042,-0.023352842777967453,0.03841781988739967,-0.02335284650325775,3.725290298461914e-09,0.0,0.00784314051270485,0.2771152853965759,0.5895735952705461,0.0544886514544487,0.38654112815856934,0.06233179196715355,0.43255648016929626,2.461381196975708,0.9972140789031982,,,,,,,
4637936000.0,77.72,0.12999999523162842,12041169408.0,1655.612862725809,142.0,0.00013008710811845958,585728.0,1300.8727638721466,1.0266093530830744e-14,0.0,2.328359603881836,-0.023283591493964195,0.04411741718649864,-0.023283595219254494,3.725290298461914e-09,0.0,0.01870756410062313,0.29649001359939575,0.7971863516601165,-0.03567057475447655,0.5839647650718689,-0.016963012516498566,0.6583570837974548,2.474008321762085,0.9970276355743408,,,,,,,
4637936000.0,85.39,-0.11999999731779099,12041169408.0,1634.2157135508144,143.0,-0.002345521003007889,589824.0,1303.3791649341583,1.0512424264419451e-14,0.0,2.3430233001708984,-0.023430222645401955,0.0471402183175087,-0.0234302319586277,9.313225746154785e-09,0.0,-0.035064972937107086,0.30507969856262207,0.7147025171068198,-0.0032458268105983734,0.47359785437583923,-0.03831079974770546,0.5711686015129089,2.5064010620117188,0.9970734119415283,,,,,,,
4637936000.0,92.6,-0.019999999552965164,12041169408.0,1652.2272812691203,144.0,0.003654584288597107,593920.0,1305.8582427501678,1.0417014473240727e-14,0.0,2.295051097869873,-0.022950513288378716,0.040906112641096115,-0.022950509563088417,-3.725290298461914e-09,0.0,0.01899697631597519,0.2854316532611847,0.5975580139811637,0.10326090455055237,0.34565621614456177,0.12225788086652756,0.44993576407432556,2.4790778160095215,0.9967389106750488,,,,,,,
4637936000.0,90.54,0.2800000011920929,12041169408.0,1624.582367473306,145.0,-0.0016996352933347225,598016.0,1308.379506111145,9.71965563589805e-15,0.0,2.301340103149414,-0.02301340363919735,0.05189371481537819,-0.02301339991390705,-3.725290298461914e-09,0.0,-0.038212668150663376,0.31992533802986145,0.7649183800250547,-0.01816590689122677,0.6075380444526672,-0.056378573179244995,0.659841001033783,2.521263360977173,0.9970788955688477,,,,,,,
4637936000.0,84.33,-0.20000000298023224,12041169408.0,1601.529461468101,146.0,-0.002487332560122013,602112.0,1310.9370613098145,9.808126533172867e-15,0.0,2.347085475921631,-0.023470846936106682,0.06407036632299423,-0.02347085438668728,7.450580596923828e-09,0.0,-0.05646825209259987,0.353528767824173,0.7787734609002908,-0.0741833746433258,0.6130656599998474,-0.13065162301063538,0.7516335844993591,2.5575551986694336,0.9982330799102783,,,,,,,
4637936000.0,85.12,-0.30000001192092896,12041169408.0,1587.5706854596547,147.0,-0.0010494685266166925,606208.0,1313.5171039104462,9.6710833785707e-15,0.0,2.319159507751465,-0.02319159358739853,0.03893256187438965,-0.02319159545004368,2.3283064365386963e-09,0.0,-0.015493907034397125,0.2786467671394348,0.7349274673757105,0.01729198545217514,0.448049396276474,0.0017980784177780151,0.5412172675132751,2.580042600631714,0.996962308883667,,,,,,,
4637936000.0,88.3,-0.25,12041169408.0,1668.595976904824,148.0,-0.00394183024764061,610304.0,1315.9718623161316,1.0533240946131173e-14,0.0,2.3350648880004883,-0.02335064858198166,0.07861290127038956,-0.02335064858198166,0.0,0.0,-0.06616171449422836,0.39100608229637146,0.703137031050749,-0.0625317245721817,0.5223578214645386,-0.12869343161582947,0.7176380753517151,2.454758405685425,0.9969675540924072,,,,,,,
4637936000.0,87.24,-0.17000000178813934,12041169408.0,1581.2852803033588,149.0,0.0022372351959347725,614400.0,1318.5621602535248,1.0135989270132484e-14,0.0,2.340934991836548,-0.023409338667988777,0.031546030193567276,-0.023409349843859673,1.1175870895385742e-08,0.0,0.01265519205480814,0.2508929371833801,0.6403244985414385,0.07049703598022461,0.3553130626678467,0.08315222710371017,0.41834351420402527,2.5902979373931885,0.9971835613250732,,,,,,,
4637936000.0,82.9,0.27000001072883606,12041169408.0,1557.7066886693656,150.0,0.0027680364437401295,618496.0,1321.191666841507,1.0984269049885143e-14,0.0,2.328792095184326,-0.023287927731871605,0.0468035489320755,-0.023287920281291008,-7.450580596923828e-09,0.0,0.014887546189129353,0.30562764406204224,0.7456828994817715,-0.01062517985701561,0.4435960054397583,0.004262368194758892,0.6060450077056885,2.6295065879821777,0.9969644546508789,,,,,,,
4637936000.0,82.68,0.44999998807907104,12041169408.0,1666.437668839648,151.0,0.003698816290125251,622592.0,1323.6496045589447,1.1003351008120887e-14,0.0,2.317089080810547,-0.02317088469862938,0.024257279932498932,-0.023170890286564827,5.587935447692871e-09,0.0,0.031755298376083374,0.21798570454120636,0.6017354982804611,0.035949427634477615,0.333444207906723,0.06770472973585129,0.34541580080986023,2.457937717437744,0.9970383644104004,,,,,,,
4637936000.0,81.98,0.46000000834465027,12041169408.0,1742.8364548569966,152.0,0.003971181809902191,626688.0,1325.9997963905334,1.1006820455072841e-14,0.0,2.329496145248413,-0.023294953629374504,0.023501353338360786,-0.0232949610799551,7.450580596923828e-09,0.0,0.04019157588481903,0.21306906640529633,0.5144627080325681,0.05658818036317825,0.29345831274986267,0.09677975624799728,0.3057800531387329,2.350191831588745,0.9969847202301025,,,,,,,
4637936000.0,82.67,0.5199999809265137,12041169408.0,1650.4094193559915,153.0,0.0013251876225695014,630784.0,1328.4816048145294,1.0809061978811485e-14,0.0,2.3658907413482666,-0.023658903315663338,0.04491265118122101,-0.023658907040953636,3.725290298461914e-09,0.0,0.018156593665480614,0.29919472336769104,0.8655008575746749,-0.07187505811452866,0.7542898654937744,-0.05371846258640289,0.8158196806907654,2.4818084239959717,0.9967420101165771,,,,,,,
4637936000.0,83.49,0.2199999988079071,12041169408.0,1663.5383113466378,154.0,0.0014602028531953692,634880.0,1330.9438264369965,1.0144662887512368e-14,0.0,2.3613336086273193,-0.023613333702087402,0.03405418246984482,-0.02361333556473255,1.862645149230957e-09,0.0,0.025457080453634262,0.2597629427909851,0.8104909677659098,-0.03216582164168358,0.576224148273468,-0.0067087337374687195,0.5967084765434265,2.462221622467041,0.9969091415405273,,,,,,,
4637936000.0,83.34,0.07000000029802322,12041169408.0,1622.5135177277007,155.0,0.0005320480559021235,638976.0,1333.4683046340942,1.0614772949502083e-14,0.0,2.3580737113952637,-0.02358074113726616,0.03247995674610138,-0.02358073741197586,-3.725290298461914e-09,0.0,0.006026117131114006,0.2548322081565857,0.7851155328228195,-0.025006186217069626,0.5122359991073608,-0.01898006536066532,0.5497329831123352,2.5244781970977783,0.996814489364624,,,,,,,
4637936000.0,84.67,0.029999999329447746,12041169408.0,1581.850055309928,156.0,0.00039952865336090326,643072.0,1336.057677745819,1.0959982921221467e-14,0.0,2.3641719818115234,-0.023641733452677727,0.05115780234336853,-0.023641718551516533,-1.4901161193847656e-08,0.0,-0.0017682164907455444,0.319902241230011,0.7558176164535031,-0.06768514961004257,0.5723556876182556,-0.06945335865020752,0.6473813056945801,2.5893731117248535,0.996657133102417,,,,,,,
4637936000.0,90.04,0.14000000059604645,12041169408.0,1671.2508886735118,157.0,0.0028006057254970074,647168.0,1338.5085365772247,1.0413545026288773e-14,0.0,2.276146411895752,-0.022761458531022072,0.04274009168148041,-0.02276146411895752,5.587935447692871e-09,0.0,0.000946693355217576,0.2924041152000427,0.8312140455784574,-0.02751680463552475,0.6287140846252441,-0.026570115238428116,0.7117301225662231,2.4508588314056396,0.9968700408935547,,,,,,,
4637936000.0,95.1,0.4300000071525574,12041169408.0,1753.9540258400846,158.0,0.0021376810036599636,651264.0,1340.843831539154,1.2396333959330263e-14,0.0,2.2906885147094727,-0.022906865924596786,0.026835916563868523,-0.02290688455104828,1.862645149230957e-08,0.0,0.034742340445518494,0.229079931974411,0.7955849084764661,0.010563002899289131,0.5015628933906555,0.045305341482162476,0.5066762566566467,2.3352949619293213,0.9969022274017334,,,,,,,
4637936000.0,90.44,0.20000000298023224,12041169408.0,1636.929913997639,159.0,-0.0012039568973705173,655360.0,1343.3460767269135,1.0614772949502083e-14,0.0,2.3246350288391113,-0.023246340453624725,0.059610165655612946,-0.02324634976685047,1.0244548320770264e-08,0.0,-0.021242227405309677,0.34467101097106934,0.8394054617610741,-0.1661691516637802,0.8383002877235413,-0.18741141259670258,0.8600810170173645,2.5022451877593994,0.997002363204956,,,,,,,
,,,,,,,,,,,,,,,,,,,,,,,,,,0.004879053216427565,0.053526826202869415,0.04446811228990555,0.004879053216427565,0.053526826202869415,0.04446811228990555,
,,,,,,,,,,,,,,,,,,,,,,,,,,0.0034231171011924744,0.04131372645497322,0.03986958786845207,0.0034231171011924744,0.04131372645497322,0.03986958786845207,
,,,,,,,,,,,,,,,,,,,,,,,,,,0.003538896329700947,0.03727184608578682,0.03542838990688324,0.003538896329700947,0.03727184608578682,0.03542838990688324,
,,,,,,,,,,,,,,,,,,,,,,,,,,0.0033498082775622606,0.03539488464593887,0.03415996953845024,0.0033498082775622606,0.03539488464593887,0.03415996953845024,
,,,,,,,,,,,,,,,,,,,,,,,,,,0.002647487446665764,0.032859575003385544,0.03236139193177223,0.002647487446665764,0.032859575003385544,0.03236139193177223,
,,,,,,,,,,,,,,,,,,,,,,,,,,0.002472636057063937,0.03177107498049736,0.0306903887540102,0.002472636057063937,0.03177107498049736,0.0306903887540102,
,,,,,,,,,,,,,,,,,,,,,,,,,,,,,,,,0.26
4637936000.0,90.66,0.3400000035762787,11990521856.0,17.024714398257338,160.0,0.004020325839519501,659456.0,1583.9374842643738,1.0894063429134349e-14,0.0,2.3504488468170166,-0.023504488170146942,0.029699383303523064,-0.023504488170146942,0.0,0.0,0.036384496837854385,0.24101684987545013,0.7933581511151693,-0.013892320916056633,0.4842909872531891,0.0224921815097332,0.5301982164382935,240.59140753746033,0.9971640110015869,,,,,,,
4637936000.0,86.13,0.36000001430511475,12041169408.0,1701.6112919705918,161.0,0.0008044942514970899,663552.0,1586.3446145057678,1.0481199241851868e-14,0.0,2.307004451751709,-0.02307005226612091,0.08270517736673355,-0.023070044815540314,-7.450580596923828e-09,0.0,-0.01570640504360199,0.4064529240131378,0.7429549431538174,-0.03667442500591278,0.6157126426696777,-0.05238083004951477,0.8016884922981262,2.407130241394043,0.9970061779022217,,,,,,,
4637936000.0,83.5,0.20000000298023224,12041169408.0,1698.2896456033982,162.0,0.000805863062851131,667648.0,1588.7564527988434,1.0647732695545642e-14,0.0,2.3059167861938477,-0.023059163242578506,0.027497122064232826,-0.023059166967868805,3.725290298461914e-09,0.0,0.03778203949332237,0.23147320747375488,0.8793919437994188,-0.08358412981033325,0.650483250617981,-0.04580208286643028,0.666519045829773,2.4118382930755615,0.9970009326934814,,,,,,,
4637936000.0,84.64,0.3100000023841858,12041169408.0,1726.4492822016396,163.0,0.002420172793790698,671744.0,1591.1289522647858,9.723125082850004e-15,0.0,2.361893653869629,-0.02361893281340599,0.034714557230472565,-0.02361893653869629,3.725290298461914e-09,0.0,0.02789050154387951,0.26204580068588257,0.6985498656323352,0.016133105382323265,0.43338271975517273,0.044023606926202774,0.4772758185863495,2.372499465942383,0.9968914985656738,,,,,,,
4637936000.0,86.6,0.3100000023841858,12041169408.0,1701.7518652550934,164.0,0.002019792329519987,675840.0,1593.5358836650848,9.223524721768683e-15,0.0,2.3602511882781982,-0.023602504283189774,0.03913005441427231,-0.02360251173377037,7.450580596923828e-09,0.0,0.004865515977144241,0.27974191308021545,0.7598924182690913,0.050270404666662216,0.4641444981098175,0.05513592064380646,0.570892870426178,2.4069314002990723,0.9965837001800537,,,,,,,
4637936000.0,89.04,0.33000001311302185,12041169408.0,1698.7585010507564,165.0,0.001888522645458579,679936.0,1595.9470562934875,1.0302522723826257e-14,0.0,2.299960136413574,-0.0229995958507061,0.03163027763366699,-0.022999601438641548,5.587935447692871e-09,0.0,0.024455731734633446,0.2503553032875061,0.8139311806453687,0.0086062615737319,0.5158386826515198,0.03306198865175247,0.5803900361061096,2.41117262840271,0.9968874454498291,,,,,,,
4637936000.0,89.57,0.5600000023841858,12041169408.0,1608.053167622099,166.0,0.005403976887464523,684032.0,1598.494235754013,9.003214840319629e-15,0.0,2.36157488822937,-0.023615745827555656,0.019981224089860916,-0.023615747690200806,1.862645149230957e-09,0.0,0.03225298598408699,0.1973111778497696,0.8455848660628891,0.11002011597156525,0.44405844807624817,0.14227309823036194,0.5021190643310547,2.5471794605255127,0.996788501739502,,,,,,,
4637936000.0,89.08,0.6600000262260437,12041169408.0,1730.7001222882932,167.0,0.002841813489794731,688128.0,1600.8609080314636,9.360567876370851e-15,0.0,2.408900022506714,-0.02408900111913681,0.02488475665450096,-0.02408899925649166,-1.862645149230957e-09,0.0,0.019100166857242584,0.22229883074760437,0.8046007900417046,0.003574145957827568,0.4470135271549225,0.022674310952425003,0.5028932094573975,2.3666722774505615,0.9967613220214844,,,,,,,
4637936000.0,88.67,0.5299999713897705,12041169408.0,1708.9975910709668,168.0,0.0031178209464997053,692224.0,1603.25763463974,9.027500968983304e-15,0.0,2.4197514057159424,-0.024197516962885857,0.041242994368076324,-0.024197513237595558,-3.725290298461914e-09,0.0,-0.01555903535336256,0.2868170142173767,0.6734243013981167,0.16600477695465088,0.400857537984848,0.15044572949409485,0.5018951296806335,2.396726608276367,0.9968373775482178,,,,,,,
4637936000.0,84.22,0.5199999809265137,12041169408.0,1787.210960534378,169.0,0.004479920957237482,696320.0,1605.5494737625122,9.251280297384312e-15,0.0,2.3580169677734375,-0.02358018048107624,0.02560635283589363,-0.023580169305205345,-1.1175870895385742e-08,0.0,-0.008104884065687656,0.2261846661567688,0.7207087793830775,0.1765138804912567,0.3402128517627716,0.16840898990631104,0.4279909133911133,2.291839122772217,0.9968376159667969,,,,,,,
4637936000.0,85.26,0.6399999856948853,12041169408.0,1736.137366498054,170.0,0.0036704556550830603,700416.0,1607.9087340831757,9.764758446273447e-15,0.0,2.4099979400634766,-0.024099983274936676,0.030094139277935028,-0.024099979549646378,-3.725290298461914e-09,0.0,-0.001178305596113205,0.2453601062297821,0.8135208908916833,0.17797480523586273,0.4880760610103607,0.17679648101329803,0.5681838393211365,2.359260320663452,0.9968883991241455,,,,,,,
4637936000.0,87.3,0.550000011920929,12041169408.0,1700.6907236711916,171.0,0.001223875442519784,704512.0,1610.3171672821045,9.717920912422073e-15,0.0,2.4098944664001465,-0.024098943918943405,0.07403559982776642,-0.024098943918943405,0.0,0.0,-0.02599354460835457,0.3839681148529053,0.6919640553051785,0.10090401768684387,0.595578670501709,0.074910469353199,0.6918221712112427,2.408433198928833,0.9970507621765137,,,,,,,
4637936000.0,88.7,0.1599999964237213,12041169408.0,1726.7779449175753,172.0,-5.820766091346741e-11,708608.0,1612.689215183258,1.0319869958586025e-14,0.0,2.3805160522460938,-0.023805156350135803,0.035252563655376434,-0.0238051600754261,3.725290298461914e-09,0.0,-0.0174217838793993,0.2649882137775421,0.8831759882511351,0.06450679898262024,0.7069626450538635,0.04708501324057579,0.7752833962440491,2.3720479011535645,0.9968070983886719,,,,,,,
4637936000.0,84.72,0.07999999821186066,12041169408.0,1677.8321992904805,173.0,0.0028647889848798513,712704.0,1615.1304605007172,1.0240072678691092e-14,0.0,2.341794967651367,-0.023417944088578224,0.02613290213048458,-0.023417949676513672,5.587935447692871e-09,0.0,-0.010610553435981274,0.22839868068695068,0.7882295561254371,0.1589081585407257,0.44754552841186523,0.14829760789871216,0.4963189959526062,2.4412453174591064,0.9970002174377441,,,,,,,
4637936000.0,82.32,0.5699999928474426,12041169408.0,1671.521463306565,174.0,0.0036883167922496796,716800.0,1617.5809226036072,9.880984919163893e-15,0.0,2.3907971382141113,-0.02390798181295395,0.033818721771240234,-0.023907970637083054,-1.1175870895385742e-08,0.0,-0.004204373806715012,0.26006975769996643,0.6783725095816797,0.16645854711532593,0.3970451354980469,0.16225416958332062,0.45857805013656616,2.4504621028900146,0.9969050884246826,,,,,,,
4637936000.0,86.35,0.36000001430511475,12041169408.0,1694.134687888807,175.0,0.0,720896.0,1619.9986760616302,1.0373646386341306e-14,0.0,2.4062650203704834,-0.02406265400350094,0.0464310385286808,-0.02406265027821064,-3.725290298461914e-09,0.0,-0.03145454823970795,0.30314210057258606,0.7418863559413812,0.10375546663999557,0.5040481090545654,0.07230091094970703,0.5966790914535522,2.4177534580230713,0.9969172477722168,,,,,,,
4637936000.0,86.2,0.14000000059604645,12041169408.0,1643.2705296316549,176.0,0.0016437855083495378,724992.0,1622.4912662506104,1.0569670139126686e-14,0.0,2.3876471519470215,-0.023876475170254707,0.0265255868434906,-0.02387647144496441,-3.725290298461914e-09,0.0,-0.0006292881444096565,0.2303556501865387,0.8918080695208882,0.05811244994401932,0.6351182460784912,0.05748317018151283,0.70032799243927,2.4925901889801025,0.9967308044433594,,,,,,,
4637936000.0,88.89,0.20999999344348907,12041169408.0,1650.0305742044472,177.0,0.004114752169698477,729088.0,1624.9736444950104,9.896597430447684e-15,0.0,2.437203884124756,-0.0243720430880785,0.023467887192964554,-0.02437203750014305,-5.587935447692871e-09,0.0,0.01453671045601368,0.2161848098039627,0.7407630842453885,0.13886812329292297,0.385478675365448,0.1534048318862915,0.4245968461036682,2.4823782444000244,0.9974377155303955,,,,,,,
4637936000.0,88.32,0.5,12041169408.0,1643.5602641120047,178.0,0.0028847972862422466,733184.0,1627.4657952785492,1.0411810302812796e-14,0.0,2.387288808822632,-0.02387290634214878,0.0405520498752594,-0.02387288771569729,-1.862645149230957e-08,0.0,0.003842860460281372,0.28479665517807007,0.7785559269387142,0.07444436848163605,0.5050711035728455,0.07828722894191742,0.6052054762840271,2.4921507835388184,0.9970729351043701,,,,,,,
4637936000.0,87.52,0.5899999737739563,12041169408.0,1671.256416365091,179.0,0.004953254014253616,737280.0,1629.9166460037231,1.0959982921221467e-14,0.0,2.3425545692443848,-0.023425549268722534,0.01806420087814331,-0.023425545543432236,-4.6566128730773926e-09,0.0,0.03270859643816948,0.1872621476650238,0.7357016986483044,0.17645515501499176,0.3255760967731476,0.20916375517845154,0.3642527163028717,2.45085072517395,0.997016429901123,,,,,,,
4637936000.0,87.02,0.7400000095367432,12041169408.0,1604.3055091598324,180.0,0.005788397043943405,741376.0,1632.4697756767273,1.1358969320696133e-14,0.0,2.3695549964904785,-0.02369554154574871,0.01855376362800598,-0.023695548996329308,7.450580596923828e-09,0.0,0.029781952500343323,0.19034023582935333,0.7782234773687956,0.15824934840202332,0.3870125114917755,0.18803131580352783,0.4041781723499298,2.5531296730041504,0.9969139099121094,,,,,,,
4637936000.0,90.27,0.7599999904632568,12041169408.0,1738.307032284594,181.0,0.0028972411528229713,745472.0,1634.8260912895203,1.1634790353376445e-14,0.0,2.3814094066619873,-0.023814091458916664,0.03073604218661785,-0.023814093321561813,1.862645149230957e-09,0.0,-0.01672383025288582,0.2474011778831482,0.8471371343889074,0.1858084499835968,0.5495518445968628,0.1690846085548401,0.6327770352363586,2.3563156127929688,0.9967734813690186,,,,,,,
4637936000.0,94.55,0.8299999833106995,12041169408.0,1644.4056839056827,182.0,0.004695504903793335,749568.0,1637.316960811615,1.1842957170493662e-14,0.0,2.3854031562805176,-0.023854034021496773,0.03764091804623604,-0.023854030296206474,-3.725290298461914e-09,0.0,-0.005302007310092449,0.2743576169013977,0.6992944252790959,0.200806125998497,0.41193705797195435,0.19550412893295288,0.500318169593811,2.4908695220947266,0.9968063831329346,,,,,,,
4637936000.0,94.27,0.7300000190734863,12041169408.0,1623.7601187111898,183.0,0.00318117905408144,753664.0,1639.8395009040833,1.1336417915508434e-14,0.0,2.420933723449707,-0.024209335446357727,0.02837226539850235,-0.024209337309002876,1.862645149230957e-09,0.0,-0.009133880957961082,0.2380649894475937,0.6597419790996482,0.18130144476890564,0.34639662504196167,0.17216756939888,0.408123254776001,2.5225400924682617,0.9969234466552734,,,,,,,
4637936000.0,92.63,0.7599999904632568,12041169408.0,1562.7568718390432,184.0,0.007341546472162008,757760.0,1642.4605100154877,1.2717257802385973e-14,0.0,2.414780616760254,-0.024147814139723778,0.034992765635252,-0.02414780482649803,-9.778887033462524e-09,0.0,0.04012515768408775,0.26151901483535767,0.6948548259594035,0.1652851104736328,0.4141002893447876,0.20541027188301086,0.4734237492084503,2.621009111404419,0.9968171119689941,,,,,,,
4637936000.0,91.6,0.6899999976158142,12041169408.0,1540.4072322580587,185.0,0.0019423877820372581,761856.0,1645.1195471286774,1.2833484275276419e-14,0.0,2.436276912689209,-0.024362783879041672,0.045988354831933975,-0.024362768977880478,-1.4901161193847656e-08,0.0,-0.04426657035946846,0.300065279006958,0.6084359859825395,0.19108152389526367,0.3769984841346741,0.14681494235992432,0.47952842712402344,2.6590371131896973,0.9967923164367676,,,,,,,
4637936000.0,87.93,0.5600000023841858,12041169408.0,1564.5554979290428,186.0,0.0040282574482262135,765952.0,1647.737543106079,1.2888995426507677e-14,0.0,2.4464111328125,-0.024464109912514687,0.03130801022052765,-0.024464109912514687,0.0,0.0,0.006420085672289133,0.25018009543418884,0.7763298215507941,0.22619956731796265,0.45599567890167236,0.23261964321136475,0.5289915800094604,2.6179959774017334,0.9972691535949707,,,,,,,
4637936000.0,92.83,0.5099999904632568,12041169408.0,1639.5015213220324,187.0,0.0009734550840221345,770048.0,1650.2358634471893,1.2821341210944581e-14,0.0,2.4755053520202637,-0.02475506067276001,0.06553737819194794,-0.024755053222179413,-7.450580596923828e-09,0.0,-0.04811900109052658,0.35887429118156433,0.6912874037359018,0.09241719543933868,0.5340564250946045,0.0442982017993927,0.6458998322486877,2.4983203411102295,0.9967575073242188,,,,,,,
4637936000.0,95.41,0.3400000035762787,12041169408.0,1684.6336981276204,188.0,0.0030623606871813536,774144.0,1652.6672525405884,1.3846562785246874e-14,0.0,2.411996364593506,-0.024119967594742775,0.02643616683781147,-0.024119963869452477,-3.725290298461914e-09,0.0,0.012240994721651077,0.22964182496070862,0.8637536746908288,0.10807722806930542,0.6156848669052124,0.1203182190656662,0.622140645980835,2.431389093399048,0.9969696998596191,,,,,,,
4637936000.0,87.58,0.23000000417232513,12041169408.0,1625.4305161481318,189.0,0.0019513944862410426,778240.0,1655.187200307846,1.3530843112619095e-14,0.0,2.422494888305664,-0.02422494627535343,0.04935436695814133,-0.02422494813799858,2.3283064365386963e-09,0.0,-0.0054847788996994495,0.3141699433326721,0.7893450328529832,0.0844355896115303,0.5983364582061768,0.07895081490278244,0.6845083236694336,2.5199477672576904,0.9968523979187012,,,,,,,
4637936000.0,82.68,0.44999998807907104,12041169408.0,1602.0294626465056,190.0,0.004327208735048771,782336.0,1657.7439572811127,1.463586196681632e-14,0.0,2.4317002296447754,-0.024317005649209023,0.03250359371304512,-0.024317001923918724,-3.725290298461914e-09,0.0,-0.000976787880063057,0.25499433279037476,0.714689144009793,0.16755974292755127,0.4048069417476654,0.16658297181129456,0.4773878753185272,2.5567569732666016,0.997262716293335,,,,,,,
4637936000.0,84.09,0.5699999928474426,12041169408.0,1659.7024824430544,191.0,0.0064297812059521675,786432.0,1660.2118694782257,1.4405143744511406e-14,0.0,2.3889904022216797,-0.023889899253845215,0.03517947345972061,-0.023889902979135513,3.725290298461914e-09,0.0,0.043664172291755676,0.2616659998893738,0.6017828524505007,0.15269193053245544,0.3369322121143341,0.19635610282421112,0.4146554172039032,2.467912197113037,0.9967923164367676,,,,,,,
,,,,,,,,,,,,,,,,,,,,,,,,,,0.006790675688534975,0.043973665684461594,0.03452945873141289,0.006790675688534975,0.043973665684461594,0.03452945873141289,
,,,,,,,,,,,,,,,,,,,,,,,,,,0.00453649926930666,0.03409276157617569,0.03157573193311691,0.00453649926930666,0.03409276157617569,0.03157573193311691,
,,,,,,,,,,,,,,,,,,,,,,,,,,0.0033392973709851503,0.031204532831907272,0.029002418741583824,0.0033392973709851503,0.031204532831907272,0.029002418741583824,
,,,,,,,,,,,,,,,,,,,,,,,,,,0.003403389360755682,0.029532402753829956,0.027985237538814545,0.003403389360755682,0.029532402753829956,0.027985237538814545,
,,,,,,,,,,,,,,,,,,,,,,,,,,0.0033852835185825825,0.028019877150654793,0.027001971378922462,0.0033852835185825825,0.028019877150654793,0.027001971378922462,
,,,,,,,,,,,,,,,,,,,,,,,,,,0.003289740299805999,0.027063537389039993,0.02633587457239628,0.003289740299805999,0.027063537389039993,0.02633587457239628,
,,,,,,,,,,,,,,,,,,,,,,,,,,,,,,,,0.39
4637940000.0,85.71,0.8399999737739563,11990521856.0,17.007119200648223,192.0,0.004477379377931356,790528.0,1901.0521876811981,1.2448375663609568e-14,0.0,2.4032154083251953,-0.02403215505182743,0.020352886989712715,-0.02403215318918228,-1.862645149230957e-09,0.0,0.02559943124651909,0.2001505047082901,0.8960796002810442,0.12790673971176147,0.5742549896240234,0.15350617468357086,0.6208780407905579,240.8403182029724,0.9972612857818604,,,,,,,
4637940000.0,85.31,0.9700000286102295,12041169408.0,1649.9586291332475,193.0,0.007425492629408836,794624.0,1903.534674167633,1.2569806306927944e-14,0.0,2.393951177597046,-0.02393951080739498,0.017559144645929337,-0.02393951080739498,0.0,0.0,0.04180978611111641,0.18269750475883484,0.7555957122591613,0.22660475969314575,0.3258441388607025,0.26841455698013306,0.3695542812347412,2.4824864864349365,0.9969799518585205,,,,,,,
4637940000.0,91.66,0.9900000095367432,12041169408.0,1748.2483988853458,194.0,0.003928316757082939,798720.0,1905.8775906562805,1.4536982728685643e-14,0.0,2.337620735168457,-0.023376204073429108,0.019476011395454407,-0.023376205936074257,1.862645149230957e-09,0.0,0.005468208342790604,0.19731098413467407,0.8479602975431525,0.17447476089000702,0.4623323678970337,0.17994296550750732,0.5060259699821472,2.342916488647461,0.9970858097076416,,,,,,,
4637940000.0,91.78,1.0,12041169408.0,1743.2058778346336,195.0,0.007585619110614061,802816.0,1908.2272844314575,1.3536047283047026e-14,0.0,2.358123779296875,-0.02358122542500496,0.021008329465985298,-0.023581236600875854,1.1175870895385742e-08,0.0,0.03151040896773338,0.2025679498910904,0.815996896470603,0.22475476562976837,0.39960813522338867,0.25626516342163086,0.4722350239753723,2.349693775177002,0.9971315860748291,,,,,,,
4637940000.0,82.28,0.7699999809265137,12041169408.0,1677.5011003436462,196.0,0.0045022014528512955,806912.0,1910.669011592865,1.5208320713888668e-14,0.0,2.2816405296325684,-0.022816408425569534,0.021091915667057037,-0.022816404700279236,-3.725290298461914e-09,0.0,-0.006160018965601921,0.20531968772411346,0.7877484959026002,0.19943881034851074,0.3947889804840088,0.19327878952026367,0.44566163420677185,2.4417271614074707,0.9967429637908936,,,,,,,
4637940000.0,82.43,0.6499999761581421,12041169408.0,1631.85174542501,197.0,0.005496668629348278,811008.0,1913.1790435314178,1.4557799410397365e-14,0.0,2.324721336364746,-0.02324720285832882,0.015557799488306046,-0.023247212171554565,9.313225746154785e-09,0.0,0.011180155910551548,0.17606297135353088,0.8756065441840138,0.19761885702610016,0.4883330464363098,0.20879900455474854,0.4991939067840576,2.5100319385528564,0.9969236850738525,,,,,,,
4637940000.0,84.32,0.699999988079071,12041169408.0,1587.0625137414056,198.0,0.0028232471086084843,815104.0,1915.7599122524261,1.4583820262537017e-14,0.0,2.3432905673980713,-0.023432910442352295,0.029798012226819992,-0.023432904854416847,-4.6566128730773926e-09,0.0,-0.012870588339865208,0.24381323158740997,0.8157189168336778,0.18272194266319275,0.5284587144851685,0.1698513627052307,0.5679588913917542,2.580868721008301,0.99733567237854,,,,,,,
4637940000.0,89.28,0.49000000953674316,12041169408.0,1692.2174919885008,199.0,0.0032494566403329372,819200.0,1918.1804049015045,1.511464564618592e-14,0.0,2.3091611862182617,-0.02309161052107811,0.03284299373626709,-0.02309161052107811,9.313225746154785e-10,0.0,0.015566714107990265,0.25585082173347473,0.8459740096940699,0.10245172679424286,0.6391896605491638,0.11801842600107193,0.6519132852554321,2.420492649078369,0.9968600273132324,,,,,,,
4637940000.0,95.0,0.6200000047683716,12041169408.0,1647.8733671613554,200.0,0.005800491198897362,823296.0,1920.6660327911377,1.3978401769421112e-14,0.0,2.3319010734558105,-0.02331898733973503,0.017460063099861145,-0.023319009691476822,2.2351741790771484e-08,0.0,0.041256655007600784,0.18228036165237427,0.7164326287776213,0.24428340792655945,0.30291852355003357,0.28554004430770874,0.3423037528991699,2.4856278896331787,0.9969933032989502,,,,,,,
4637940000.0,90.47,0.8100000023841858,12041169408.0,1659.7169131271662,201.0,0.003541674930602312,827392.0,1923.1339235305786,1.468616894761965e-14,0.0,2.2767276763916016,-0.02276727929711342,0.021536672487854958,-0.02276727557182312,-3.725290298461914e-09,0.0,0.005722585134208202,0.20748759806156158,0.9179854380768276,0.14287057518959045,0.6920444965362549,0.14859317243099213,0.7245137691497803,2.467890739440918,0.9969327449798584,,,,,,,
4637940000.0,97.11,0.8399999737739563,12041169408.0,1716.6841268161593,202.0,0.0065180957317352295,831488.0,1925.519918680191,1.4219528332581888e-14,0.0,2.3753914833068848,-0.023753918707370758,0.03650346398353577,-0.02375391498208046,-3.725290298461914e-09,0.0,0.03731697052717209,0.2676412761211395,0.8508515725620031,0.2589353919029236,0.6215821504592896,0.2962523400783539,0.6930168271064758,2.3859951496124268,0.9970717430114746,,,,,,,
4637940000.0,93.55,0.7599999904632568,12041169408.0,1670.2357144419616,203.0,0.003262060694396496,835584.0,1927.972267150879,1.3926360065141807e-14,0.0,2.34004807472229,-0.023400474339723587,0.033361274749040604,-0.023400479927659035,5.587935447692871e-09,0.0,-0.016148289665579796,0.2578333020210266,0.879920442622945,0.15548323094844818,0.6802839040756226,0.13933494687080383,0.7440540194511414,2.452348470687866,0.9969971179962158,,,,,,,
4637940000.0,89.81,0.7300000190734863,12041169408.0,1713.4449186097493,204.0,0.0039732130244374275,839680.0,1930.3627729415894,1.3813603039203315e-14,0.0,2.3629469871520996,-0.02362947352230549,0.05393887311220169,-0.02362946979701519,-3.725290298461914e-09,0.0,-0.002570470329374075,0.32847753167152405,0.6665380827225516,0.25846219062805176,0.4368099272251129,0.25589171051979065,0.568830132484436,2.390505790710449,0.9966516494750977,,,,,,,
4637940000.0,91.27,0.5400000214576721,12041169408.0,1684.843023412043,205.0,0.004543903283774853,843776.0,1932.7938599586487,1.3969728152041228e-14,0.0,2.382020950317383,-0.02382020838558674,0.056270841509103775,-0.02382020838558674,0.0,0.0,-0.00570474099367857,0.335464745759964,0.7920835944290373,0.26519981026649475,0.6548124551773071,0.2594950497150421,0.7357029914855957,2.431087017059326,0.9974203109741211,,,,,,,
4637940000.0,95.84,0.5199999809265137,12041169408.0,1626.4142654468403,206.0,0.0015638782642781734,847872.0,1935.3122835159302,1.3773704399255848e-14,0.0,2.3868513107299805,-0.02386852726340294,0.05254054442048073,-0.023868512362241745,-1.4901161193847656e-08,0.0,-0.0667780339717865,0.3172481060028076,0.683777574388394,0.2637553811073303,0.4885851740837097,0.1969773769378662,0.5641605257987976,2.518423557281494,0.9971573352813721,,,,,,,
4637940000.0,96.46,0.4300000071525574,12041169408.0,1755.553301272612,207.0,0.002277604304254055,851968.0,1937.6454510688782,1.454392162258955e-14,0.0,2.410878896713257,-0.024108780547976494,0.050900183618068695,-0.02410878799855709,7.450580596923828e-09,0.0,-0.03227734938263893,0.31746360659599304,0.7524727299667916,0.26001814007759094,0.6055933237075806,0.2277407944202423,0.6380907297134399,2.333167552947998,0.9972717761993408,,,,,,,
4637940000.0,88.75,0.4300000071525574,12041169408.0,1740.5614786091166,208.0,0.003990280441939831,856064.0,1939.99871468544,1.3197776205231548e-14,0.0,2.440800666809082,-0.024408014491200447,0.053223349153995514,-0.02440800704061985,-7.450580596923828e-09,0.0,-0.038994163274765015,0.32396262884140015,0.7090272655362497,0.24397772550582886,0.4766692817211151,0.20498356223106384,0.6005770564079285,2.3532636165618896,0.9970800876617432,,,,,,,
4637940000.0,84.67,0.6299999952316284,12041169408.0,1692.34434761057,209.0,0.004706203006207943,860160.0,1942.4190258979797,1.2989609388114332e-14,0.0,2.4319169521331787,-0.024319149553775787,0.04144446551799774,-0.02431916818022728,1.862645149230957e-08,0.0,0.006571498699486256,0.2878645360469818,0.8311880748539331,0.18580356240272522,0.6307269334793091,0.192375048995018,0.70062655210495,2.420311212539673,0.9977529048919678,,,,,,,
4637940000.0,84.81,0.5799999833106995,12041169408.0,1634.531654973048,210.0,0.006427137181162834,864256.0,1944.9249424934387,1.3194306758279595e-14,0.0,2.480943202972412,-0.024809427559375763,0.03039333038032055,-0.02480943128466606,3.725290298461914e-09,0.0,0.04278179258108139,0.2428389936685562,0.8036835896869514,0.21892958879470825,0.5090151429176331,0.26171138882637024,0.5480751991271973,2.5059165954589844,0.9968528747558594,,,,,,,
4637940000.0,86.64,0.6600000262260437,12041169408.0,1699.9639011203224,211.0,0.0044285086914896965,868352.0,1947.3344054222107,1.3510026430907374e-14,0.0,2.474477767944336,-0.024744778871536255,0.08100487291812897,-0.024744777008891106,-1.862645149230957e-09,0.0,-0.04155943915247917,0.40040192008018494,0.7002302912162324,0.17314478754997253,0.5704333186149597,0.13158534467220306,0.7313113212585449,2.4094629287719727,0.9966773986816406,,,,,,,
4637940000.0,88.47,0.8899999856948853,12041169408.0,1686.8972336933089,212.0,0.0047181956470012665,872448.0,1949.7625319957733,1.3229001227799131e-14,0.0,2.463512420654297,-0.024635134264826775,0.08153537660837173,-0.02463512308895588,-1.1175870895385742e-08,0.0,-0.037556517869234085,0.40211907029151917,0.4595567580790644,0.25528138875961304,0.3954627215862274,0.21772488951683044,0.5469902753829956,2.428126573562622,0.9968521595001221,,,,,,,
4637940000.0,87.35,0.9200000166893005,12041169408.0,1728.7847349761878,213.0,0.005436544306576252,876544.0,1952.1318264007568,1.309889696710087e-14,0.0,2.4164247512817383,-0.024164248257875443,0.036083318293094635,-0.024164246395230293,-2.7939677238464355e-09,0.0,0.03308812528848648,0.2666255235671997,0.8050052385565001,0.2393128126859665,0.5452330112457275,0.2724009156227112,0.6037960052490234,2.3692944049835205,0.9967799186706543,,,,,,,
4637940000.0,84.73,0.75,12041169408.0,1752.7225491513361,214.0,0.007157604210078716,880640.0,1954.4687621593475,1.5975068490270417e-14,0.0,2.3967177867889404,-0.02396717667579651,0.03934846818447113,-0.02396717667579651,0.0,0.0,0.030322004109621048,0.2789202332496643,0.8031443698548539,0.19636332988739014,0.5569741129875183,0.22668534517288208,0.6286458969116211,2.3369357585906982,0.9969079494476318,,,,,,,
4637940000.0,78.85,0.6499999761581421,12041169408.0,1622.1766248422662,215.0,0.004728979431092739,884736.0,1956.9937646389008,1.5126788710517758e-14,0.0,2.379197835922241,-0.023791972547769547,0.024543240666389465,-0.023791978135704994,6.51925802230835e-09,0.0,0.007514572236686945,0.22145424783229828,0.8743294508260848,0.15891069173812866,0.5758588314056396,0.16642525792121887,0.6246939301490784,2.5250024795532227,0.9973208904266357,,,,,,,
4637940000.0,81.99,0.7799999713897705,12041169408.0,1704.240514410763,216.0,0.004443272482603788,888832.0,1959.3971812725067,1.7503359872605984e-14,0.0,2.3502445220947266,-0.023502444848418236,0.08240388333797455,-0.023502444848418236,0.0,0.0,0.000756540335714817,0.4060141146183014,0.7352446447488775,0.16578853130340576,0.6780468821525574,0.1665450781583786,0.7890757918357849,2.403416633605957,0.9975287914276123,,,,,,,
4637940000.0,86.09,0.6899999976158142,12041169408.0,1725.273784757301,217.0,0.0032986083533614874,892928.0,1961.7712972164154,1.80480630440627e-14,0.0,2.2874019145965576,-0.02287401631474495,0.07379435747861862,-0.0228740181773901,1.862645149230957e-09,0.0,-0.009994979947805405,0.3840896189212799,0.7892949540368968,0.10148629546165466,0.7716721296310425,0.09149131178855896,0.8367488384246826,2.3741159439086914,0.9966320991516113,,,,,,,
4637940000.0,82.67,0.2800000011920929,12041169408.0,1745.2622255127585,218.0,0.0004306876799091697,897024.0,1964.1182224750519,1.827184237246371e-14,0.0,2.261244297027588,-0.022612443193793297,0.05409546196460724,-0.022612443193793297,0.0,0.0,-0.04253901168704033,0.3262013792991638,0.7759701957079548,0.16167308390140533,0.6310543417930603,0.11913406103849411,0.689180314540863,2.3469252586364746,0.9966127872467041,,,,,,,
4637940000.0,87.65,0.23000000417232513,12041169408.0,1709.2519571979358,219.0,0.004311596043407917,901120.0,1966.514592409134,1.8800933032636635e-14,0.0,2.257035732269287,-0.022570353001356125,0.05951017141342163,-0.022570356726646423,3.725290298461914e-09,0.0,-0.007124852389097214,0.3449617326259613,0.5987636832459029,0.21938885748386383,0.42967700958251953,0.21226400136947632,0.5445915460586548,2.3963699340820312,0.9971108436584473,,,,,,,
4637940000.0,90.46,0.6800000071525574,12041169408.0,1625.8498450935633,220.0,0.00647408002987504,905216.0,1969.033890247345,1.892409839943099e-14,0.0,2.2790305614471436,-0.022790301591157913,0.051377203315496445,-0.02279030531644821,3.725290298461914e-09,0.0,0.021955301985144615,0.31983959674835205,0.7067917876449796,0.22299715876579285,0.5359384417533875,0.24495245516300201,0.5906689167022705,2.5192978382110596,0.9970808029174805,,,,,,,
4637940000.0,93.01,0.9700000286102295,12041169408.0,1593.455207058003,221.0,0.005758434534072876,909312.0,1971.6044049263,1.7862447632133183e-14,0.0,2.2879579067230225,-0.02287956513464451,0.06568905711174011,-0.022879578173160553,1.30385160446167e-08,0.0,0.022481434047222137,0.3618074953556061,0.5465219721243771,0.25441277027130127,0.40777748823165894,0.2768941819667816,0.5372784733772278,2.570514678955078,0.9968993663787842,,,,,,,
4637940000.0,91.04,0.7699999809265137,12041169408.0,1609.499716649071,222.0,0.0025929135736078024,913408.0,1974.149295091629,1.812439087700568e-14,0.0,2.253091812133789,-0.022530917078256607,0.07747599482536316,-0.022530917078256607,0.0,0.0,-0.014356080442667007,0.3934255838394165,0.5145197314912946,0.16329267621040344,0.4079439043998718,0.14893658459186554,0.5646467208862305,2.5448901653289795,0.9968459606170654,,,,,,,
4637940000.0,90.01,0.7099999785423279,12041169408.0,1613.2617117306618,223.0,0.005621736869215965,917504.0,1976.6882507801056,1.915655134521188e-14,0.0,2.237833261489868,-0.022378334775567055,0.047417670488357544,-0.022378332912921906,-1.862645149230957e-09,0.0,0.030439114198088646,0.30648285150527954,0.7001220141699807,0.17968134582042694,0.4706190526485443,0.21012046933174133,0.5596724152565002,2.5389556884765625,0.9970314502716064,,,,,,,
,,,,,,,,,,,,,,,,,,,,,,,,,,0.01074752863496542,0.053501810878515244,0.042583756148815155,0.01074752863496542,0.053501810878515244,0.042583756148815155,
,,,,,,,,,,,,,,,,,,,,,,,,,,0.005402856972068548,0.042735110968351364,0.03842033073306084,0.005402856972068548,0.042735110968351364,0.03842033073306084,
,,,,,,,,,,,,,,,,,,,,,,,,,,0.0047693029046058655,0.039054661989212036,0.03571341931819916,0.0047693029046058655,0.039054661989212036,0.03571341931819916,
,,,,,,,,,,,,,,,,,,,,,,,,,,0.004000266082584858,0.03651178628206253,0.03352474421262741,0.004000266082584858,0.03651178628206253,0.03352474421262741,
,,,,,,,,,,,,,,,,,,,,,,,,,,0.0038110020104795694,0.03418097645044327,0.032146576792001724,0.0038110020104795694,0.03418097645044327,0.032146576792001724,
,,,,,,,,,,,,,,,,,,,,,,,,,,0.004252706654369831,0.0334138385951519,0.03169623389840126,0.004252706654369831,0.0334138385951519,0.03169623389840126,
,,,,,,,,,,,,,,,,,,,,,,,,,,,,,,,,0.94
4637940000.0,88.77,0.5299999713897705,11990521856.0,16.99939609828691,224.0,0.005628632847219706,921600.0,2217.6379866600037,1.64399743818322e-14,0.0,2.2015914916992188,-0.022015903145074844,0.03544333204627037,-0.02201591432094574,1.1175870895385742e-08,0.0,0.018168644979596138,0.26565730571746826,0.8275182330868024,0.1877204179763794,0.580534040927887,0.2058890461921692,0.639661431312561,240.94973587989807,0.9969241619110107,,,,,,,
4637940000.0,89.22,0.8199999928474426,12041169408.0,1701.2661937414316,225.0,0.0056334082037210464,925696.0,2220.0456051826477,1.7106108196607295e-14,0.0,2.2151947021484375,-0.022151952609419823,0.018751315772533417,-0.022151947021484375,-5.587935447692871e-09,0.0,0.024211950600147247,0.19215990602970123,0.9037676392130142,0.2323714792728424,0.6106271147727966,0.25658345222473145,0.6194441914558411,2.407618522644043,0.9967198371887207,,,,,,,
4637940000.0,90.2,0.9599999785423279,12041169408.0,1642.2516898927242,226.0,0.007808331400156021,929792.0,2222.539741754532,1.748427791437024e-14,0.0,2.218956470489502,-0.02218957617878914,0.02109602279961109,-0.022189565002918243,-1.1175870895385742e-08,0.0,0.04465298727154732,0.20051924884319305,0.8724935552889772,0.24503955245018005,0.5208605527877808,0.2896925210952759,0.5615520477294922,2.4941365718841553,0.997124433517456,,,,,,,
4637940000.0,93.54,1.1799999475479126,12041169408.0,1628.1055600417776,227.0,0.008531732484698296,933888.0,2225.055549144745,1.668977456237286e-14,0.0,2.213712215423584,-0.022137103602290154,0.03281765803694725,-0.022137122228741646,1.862645149230957e-08,0.0,0.07186233252286911,0.24593879282474518,0.8986689830913158,0.2570081353187561,0.7234103679656982,0.3288704752922058,0.7726020812988281,2.5158073902130127,0.9968516826629639,,,,,,,
4637940000.0,100.64,1.4500000476837158,12041169408.0,1702.718640351964,228.0,0.006948388181626797,937984.0,2227.4611139297485,1.6696713456276768e-14,0.0,2.281193256378174,-0.022811943665146828,0.026057858020067215,-0.022811932489275932,-1.1175870895385742e-08,0.0,0.018813438713550568,0.22753991186618805,0.8072224177860121,0.3301333785057068,0.5722582340240479,0.34894683957099915,0.5182380080223083,2.405564785003662,0.9963741302490234,,,,,,,
4637940000.0,91.15,1.0700000524520874,12041169408.0,1680.7298438063754,229.0,0.0059425113722682,942080.0,2229.8981504440308,1.4377388168895777e-14,0.0,2.2996232509613037,-0.022996224462985992,0.03083917312324047,-0.02299623191356659,6.51925802230835e-09,0.0,0.002953367307782173,0.24836401641368866,0.8982583245869414,0.30361318588256836,0.8328022360801697,0.3065665662288666,0.7786445617675781,2.4370365142822266,0.9968442916870117,,,,,,,
4637940000.0,82.32,1.0099999904632568,12041169408.0,1715.7111990655594,230.0,0.009283531457185745,946176.0,2232.2854986190796,1.46150452851046e-14,0.0,2.313538074493408,-0.02313537895679474,0.02991594187915325,-0.023135380819439888,1.862645149230957e-09,0.0,0.020652273669838905,0.24376192688941956,0.8422670026460705,0.5019530057907104,0.5713083744049072,0.522605299949646,0.6137685775756836,2.387348175048828,0.9965107440948486,,,,,,,
4637940000.0,87.6,1.2400000095367432,12041169408.0,1627.6628605151468,231.0,0.008998760022222996,950272.0,2234.8019902706146,1.4410347914939337e-14,0.0,2.296973466873169,-0.022969737648963928,0.05365726724267006,-0.02296973392367363,-3.725290298461914e-09,0.0,-0.002700380515307188,0.3276178240776062,0.7477204663962462,0.4736957550048828,0.6029746532440186,0.47099533677101135,0.652268648147583,2.516491651535034,0.9969296455383301,,,,,,,
4637940000.0,93.66,1.090000033378601,12041169408.0,1646.9181195541285,232.0,0.002904888242483139,954368.0,2237.2890598773956,1.417442552220649e-14,0.0,2.342864751815796,-0.023428630083799362,0.0812947079539299,-0.023428646847605705,1.5832483768463135e-08,0.0,-0.07087768614292145,0.396994024515152,0.7778432556344017,0.3887239098548889,0.7450796961784363,0.3178462088108063,0.8422755599021912,2.487069606781006,0.9966130256652832,,,,,,,
4637940000.0,94.01,0.8100000023841858,12041169408.0,1699.8855174785776,233.0,0.00610661506652832,958464.0,2239.6986339092255,1.433228535852038e-14,0.0,2.331291913986206,-0.023312922567129135,0.056828130036592484,-0.023312918841838837,-3.725290298461914e-09,0.0,-0.022450024262070656,0.3364222049713135,0.6292012482764753,0.45011106133461,0.5762258768081665,0.4276610016822815,0.5524786114692688,2.409574031829834,0.9968540668487549,,,,,,,
4637940000.0,90.5,0.5799999833106995,12041169408.0,1745.0471906811738,234.0,0.0030553536489605904,962560.0,2242.0458483695984,1.433228535852038e-14,0.0,2.344224691390991,-0.02344224788248539,0.08789272606372833,-0.02344224601984024,-1.862645149230957e-09,0.0,-0.06814146041870117,0.41374385356903076,0.6730761545699946,0.42667147517204285,0.6154009699821472,0.3585300147533417,0.7236162424087524,2.347214460372925,0.9967703819274902,,,,,,,
4637940000.0,90.37,0.8700000047683716,12041169408.0,1575.205705185446,235.0,0.008445939049124718,966656.0,2244.6461436748505,1.5184034585224992e-14,0.0,2.376255512237549,-0.023762555792927742,0.0569743737578392,-0.023762553930282593,-1.862645149230957e-09,0.0,0.03368812054395676,0.33591875433921814,0.6963154165822201,0.3663862943649292,0.5059929490089417,0.40007442235946655,0.6095690131187439,2.600295305252075,0.9969930648803711,,,,,,,
4637940000.0,90.01,1.1100000143051147,12041169408.0,1625.5677048900345,236.0,0.007289511151611805,970752.0,2247.1658787727356,1.3407677745824742e-14,0.0,2.3515686988830566,-0.02351568266749382,0.037799764424562454,-0.02351568639278412,3.725290298461914e-09,0.0,0.02997921034693718,0.27334779500961304,0.680859607808824,0.2711697816848755,0.4499272406101227,0.30114901065826416,0.48386555910110474,2.519735097885132,0.9969408512115479,,,,,,,
4637940000.0,89.57,1.0399999618530273,12041169408.0,1662.3775628798132,237.0,0.006130612920969725,974848.0,2249.6298196315765,1.4552595239969435e-14,0.0,2.354560375213623,-0.02354561723768711,0.0242965966463089,-0.023545602336525917,-1.4901161193847656e-08,0.0,0.011334512382745743,0.2201739251613617,0.7949279602096365,0.27487218379974365,0.40845146775245667,0.2862067222595215,0.48619744181632996,2.4639408588409424,0.9968051910400391,,,,,,,
4637940000.0,89.15,1.1100000143051147,12041169408.0,1759.1831167924215,238.0,0.009345042519271374,978944.0,2251.9581730365753,1.4762496780562628e-14,0.0,2.338559627532959,-0.02338559553027153,0.05202721804380417,-0.02338559553027153,0.0,0.0,0.0576566644012928,0.3174188733100891,0.7089786815395318,0.3000984191894531,0.4309590756893158,0.3577551245689392,0.5883969068527222,2.3283534049987793,0.9966995716094971,,,,,,,
4637940000.0,89.75,1.1200000047683716,12041169408.0,1570.7363540097328,239.0,0.005113606806844473,983040.0,2254.5658671855927,1.3393799958016928e-14,0.0,2.3443472385406494,-0.023443475365638733,0.05878540873527527,-0.023443471640348434,-3.725290298461914e-09,0.0,0.009018320590257645,0.34280925989151,0.6268318884725393,0.2434546798467636,0.38142719864845276,0.25247299671173096,0.5611775517463684,2.607694149017334,0.9967646598815918,,,,,,,
4637940000.0,88.44,0.9200000166893005,12041169408.0,1665.5069606215122,240.0,0.00424002343788743,987136.0,2257.0251784324646,1.469137311804758e-14,0.0,2.3074631690979004,-0.023074626922607422,0.04887332022190094,-0.02307463064789772,3.725290298461914e-09,0.0,-0.003108680248260498,0.3126673102378845,0.7584431092222419,0.2251632660627365,0.46725529432296753,0.222054585814476,0.6361693143844604,2.4593112468719482,0.9970395565032959,,,,,,,
4637940000.0,86.33,0.7400000095367432,12041169408.0,1654.8161328270726,241.0,0.007171190343797207,991232.0,2259.500377893448,1.4478002130502432e-14,0.0,2.3216419219970703,-0.02321641705930233,0.030054613947868347,-0.02321641892194748,1.862645149230957e-09,0.0,-0.0128103606402874,0.24486681818962097,0.8331799320770957,0.1428668200969696,0.5001323223114014,0.1300564557313919,0.5995228886604309,2.4751994609832764,0.9968547821044922,,,,,,,
4637940000.0,85.78,0.7400000095367432,12041169408.0,1703.164110827061,242.0,0.005713608115911484,995328.0,2261.9053134918213,1.4025239303272485e-14,0.0,2.338400363922119,-0.023384004831314087,0.026180962100625038,-0.023384002968668938,-1.862645149230957e-09,0.0,0.012243828736245632,0.22852738201618195,0.7917530165373278,0.3117109537124634,0.41139742732048035,0.32395482063293457,0.5007821917533875,2.404935598373413,0.9966485500335693,,,,,,,
4637940000.0,83.6,1.1699999570846558,12041169408.0,1704.8199122894239,243.0,0.01055503822863102,999424.0,2264.3079133033752,1.4771170397942512e-14,0.0,2.3345515727996826,-0.02334551140666008,0.041322529315948486,-0.02334551513195038,3.725290298461914e-09,0.0,0.043170664459466934,0.28425532579421997,0.7581830883926847,0.35710766911506653,0.46310779452323914,0.40027832984924316,0.5780498385429382,2.402599811553955,0.9966988563537598,,,,,,,
4637940000.0,90.5,1.2000000476837158,12041169408.0,1699.9427065470852,244.0,0.003375076688826084,1003520.0,2266.717406272888,1.4243814461245563e-14,0.0,2.32985258102417,-0.023298533633351326,0.06289885938167572,-0.02329852618277073,-7.450580596923828e-09,0.0,-0.027388744056224823,0.353663831949234,0.7159216306895788,0.28439849615097046,0.506381630897522,0.25700974464416504,0.6635468006134033,2.4094929695129395,0.9967772960662842,,,,,,,
4637940000.0,90.87,0.9700000286102295,12041169408.0,1626.1847252006123,245.0,0.0074910977855324745,1007616.0,2269.236185312271,1.4601167497296785e-14,0.0,2.323230266571045,-0.023232296109199524,0.03953419625759125,-0.02323230169713497,5.587935447692871e-09,0.0,-0.0035760016180574894,0.28120261430740356,0.7171662894856367,0.40686577558517456,0.4497169554233551,0.4032897651195526,0.5287541747093201,2.5187790393829346,0.9970607757568359,,,,,,,
4637940000.0,84.86,0.9300000071525574,12041169408.0,1684.5476370754698,246.0,0.006176996044814587,1011712.0,2271.66769862175,1.4601167497296785e-14,0.0,2.3099875450134277,-0.023099878802895546,0.03700176253914833,-0.023099875077605247,-3.725290298461914e-09,0.0,-0.008918621577322483,0.27192285656929016,0.712117149036871,0.33671754598617554,0.42622116208076477,0.32779890298843384,0.506801426410675,2.4315133094787598,0.9968400001525879,,,,,,,
4637940000.0,87.9,0.8899999856948853,12041169408.0,1668.032351918281,247.0,0.00618322379887104,1015808.0,2274.123286485672,1.4800660697034118e-14,0.0,2.2389020919799805,-0.022389022633433342,0.046780556440353394,-0.022389020770788193,-1.862645149230957e-09,0.0,-0.02018171176314354,0.30524834990501404,0.7432884396049055,0.47126325964927673,0.5277407765388489,0.4510815441608429,0.6024633646011353,2.455587863922119,0.9967730045318604,,,,,,,
4637940000.0,91.28,0.6800000071525574,12041169408.0,1720.6873651508677,248.0,0.006185322534292936,1019904.0,2276.503730535507,1.62231339473351e-14,0.0,2.2709946632385254,-0.02270994894206524,0.06999707967042923,-0.02270994521677494,-3.725290298461914e-09,0.0,-0.0410376638174057,0.3719460070133209,0.7757883971868547,0.4364761710166931,0.6327478885650635,0.3954385221004486,0.7855085134506226,2.380444049835205,0.9969758987426758,,,,,,,
4637940000.0,89.66,1.1200000047683716,12041169408.0,1540.4390001237382,249.0,0.010755671188235283,1024000.0,2279.1627128124237,1.3666151543745286e-14,0.0,2.279639959335327,-0.022796407341957092,0.031021330505609512,-0.022796399891376495,-8.381903171539307e-09,0.0,0.01754177361726761,0.24849553406238556,0.7677196826377759,0.533828616142273,0.47882533073425293,0.5513704419136047,0.5155993103981018,2.658982276916504,0.9965126514434814,,,,,,,
4637940000.0,89.52,1.4299999475479126,12041169408.0,1603.4155048660018,250.0,0.007521943189203739,1028096.0,2281.717259645462,1.560383766641138e-14,0.0,2.2796339988708496,-0.02279633656144142,0.0448104590177536,-0.02279634028673172,3.259629011154175e-09,0.0,-0.03053566813468933,0.29784250259399414,0.7025019087548565,0.4285854697227478,0.5065393447875977,0.3980497717857361,0.5460652709007263,2.55454683303833,0.9970846176147461,,,,,,,
4637940000.0,86.83,1.0299999713897705,12041169408.0,1577.58732572486,251.0,0.0051685599610209465,1032192.0,2284.313629388809,1.6285583992470265e-14,0.0,2.2506027221679688,-0.022506024688482285,0.05197232961654663,-0.022506026551127434,1.862645149230957e-09,0.0,-0.0248564463108778,0.32148411870002747,0.6190632450879814,0.4051108956336975,0.4595773220062256,0.38025447726249695,0.5208745002746582,2.596369743347168,0.9965877532958984,,,,,,,
4637940000.0,88.38,0.8799999952316284,12041169408.0,1534.508636321453,252.0,0.007245103362947702,1036288.0,2286.9828877449036,1.6849369122162727e-14,0.0,2.236783981323242,-0.022367840632796288,0.0380367711186409,-0.02236783877015114,-1.862645149230957e-09,0.0,-0.01880037412047386,0.27520641684532166,0.6400998495774588,0.42493295669555664,0.4922899603843689,0.4061325788497925,0.4587410092353821,2.6692583560943604,0.9966797828674316,,,,,,,
4637940000.0,86.2,0.9399999976158142,12041169408.0,1738.5517251917759,253.0,0.006807766854763031,1040384.0,2289.338871717453,1.7074883174039712e-14,0.0,2.2515196800231934,-0.022515196353197098,0.0418870784342289,-0.022515196353197098,0.0,0.0,-0.03144513815641403,0.28775957226753235,0.7840923872867853,0.3855628967285156,0.5419420599937439,0.354117751121521,0.6192924976348877,2.3559839725494385,0.9967546463012695,,,,,,,
4637940000.0,82.72,1.0700000524520874,12041169408.0,1684.461089338888,254.0,0.009481247514486313,1044480.0,2291.770509958267,1.78537740147533e-14,0.0,2.246189594268799,-0.02246187999844551,0.03200764209032059,-0.022461894899606705,1.4901161193847656e-08,0.0,0.015718860551714897,0.2525545060634613,0.8041942621661066,0.3992272913455963,0.5198303461074829,0.41494616866111755,0.5707454085350037,2.431638240814209,0.9970715045928955,,,,,,,
4637940000.0,83.72,1.3600000143051147,12041169408.0,1626.8901789630702,255.0,0.010676160454750061,1048576.0,2294.2881968021393,1.7289988885060836e-14,0.0,2.238274335861206,-0.022382745519280434,0.031108088791370392,-0.022382743656635284,-1.862645149230957e-09,0.0,0.0577092319726944,0.24269364774227142,0.708596251166123,0.2929656505584717,0.46367529034614563,0.3506748676300049,0.4495839774608612,2.5176868438720703,0.9967257976531982,,,,,,,
,,,,,,,,,,,,,,,,,,,,,,,,,,0.01255225483328104,0.055232707411050797,0.05168501287698746,0.01255225483328104,0.055232707411050797,0.05168501287698746,
,,,,,,,,,,,,,,,,,,,,,,,,,,0.007674015127122402,0.04508594423532486,0.042975980788469315,0.007674015127122402,0.04508594423532486,0.042975980788469315,
,,,,,,,,,,,,,,,,,,,,,,,,,,0.006148340180516243,0.03976025432348251,0.03767983242869377,0.006148340180516243,0.03976025432348251,0.03767983242869377,
