CpuMaxMemory,EpLenMean,EpRewMean,GpuMaxMemory,IPS_total,Iter,Misc/FrameRewMean,Misc/InteractCount,Misc/TimeElapsed,Opt/approxkl,Opt/clipfrac,Opt/entropy,Opt/loss_pi,Opt/loss_vf,Opt/negent,Opt/pg,Opt/pi_kl,VFStats/AdvMean,VFStats/AdvStd,VFStats/EV,VFStats/VpredMean,VFStats/VpredStd,VFStats/VtargMean,VFStats/VtargStd,del_time,wait_optimization,scaled/pol_distance,scaled/vf_aux,scaled/vf_true,unscaled/pol_distance,unscaled/vf_aux,unscaled/vf_true,EvalEpMean
3033844000.0,84.51282051282051,-3.0,11965495808.0,1294.8830913662296,0.0,-0.016265030950307846,4096.0,3.163219928741455,2.949029909160572e-15,0.0,2.706648826599121,-0.02706650085747242,0.18703123927116394,-0.027066487818956375,-1.30385160446167e-08,0.0,-0.2461976855993271,0.5599336624145508,-0.0015659814212694023,0.05611107498407364,0.021563274785876274,-0.19008660316467285,0.559495747089386,3.163219928741455,1.0303936004638672,,,,,,,
3084024000.0,82.77272727272727,-3.0227272510528564,12031147008.0,1377.4812638671244,1.0,-0.014413516968488693,8192.0,6.136763095855713,2.796374243274613e-15,0.0,2.7044925689697266,-0.02704494446516037,0.1852630227804184,-0.027044925838708878,-1.862645149230957e-08,0.0,-0.1363171637058258,0.5933208465576172,0.0013331149812561005,-0.3560701608657837,0.05892486870288849,-0.4923873245716095,0.5937168002128601,2.973543167114258,1.003960132598877,,,,,,,
3133396000.0,90.07,-2.9000000953674316,12031147008.0,1393.0135689311824,2.0,-0.011898056603968143,12288.0,9.077150821685791,3.1433189384699745e-15,0.0,2.703322172164917,-0.02703322470188141,0.16523361206054688,-0.02703322097659111,-3.725290298461914e-09,0.0,0.020549103617668152,0.5745655298233032,0.04246885787768584,-0.9317992329597473,0.1879240721464157,-0.911250114440918,0.5871689915657043,2.940387725830078,0.9987802505493164,,,,,,,
3182500000.0,88.91,-2.9700000286102295,12031147008.0,1360.7591909171563,3.0,-0.01632474735379219,16384.0,12.08723521232605,2.4841240175987878e-15,0.0,2.7032113075256348,-0.02703211084008217,0.23510746657848358,-0.027032112702727318,1.862645149230957e-09,0.0,0.019652802497148514,0.6855241656303406,-0.04131460396322595,-1.2174956798553467,0.23047395050525665,-1.1978428363800049,0.6717875003814697,3.010084390640259,0.9988703727722168,,,,,,,
3231868000.0,79.38,-2.5299999713897705,12031147008.0,1384.4497216896411,4.0,-0.013120128773152828,20480.0,15.045811414718628,2.3869795029440866e-15,0.0,2.701962471008301,-0.027019619941711426,0.22303619980812073,-0.027019623667001724,3.725290298461914e-09,0.0,0.11133956164121628,0.6586211323738098,0.05890860787308527,-1.1714136600494385,0.19371840357780457,-1.0600740909576416,0.6789217591285706,2.958576202392578,0.9990756511688232,,,,,,,
3280972000.0,82.98,-2.6500000953674316,12031147008.0,1359.2114918329992,5.0,-0.014358527958393097,24576.0,18.05932331085205,2.5604518505417673e-15,0.0,2.700606346130371,-0.027006063610315323,0.1877286732196808,-0.027006063610315323,-4.656612873077393e-10,0.0,-0.043688833713531494,0.6112608909606934,0.04323441912542347,-0.8497781753540039,0.11871717870235443,-0.8934670090675354,0.6249191164970398,3.013511896133423,0.9990782737731934,,,,,,,
3330076000.0,83.4,-2.9700000286102295,12031147008.0,1365.3066411468408,6.0,-0.011125335469841957,28672.0,21.05938196182251,3.594347042223944e-15,0.0,2.694398880004883,-0.026943983510136604,0.1308189034461975,-0.026943989098072052,5.587935447692871e-09,0.0,-0.020392466336488724,0.5111611485481262,0.07812763561305602,-0.7422897219657898,0.09484706073999405,-0.7626821994781494,0.5323808789253235,3.000058650970459,0.9993598461151123,,,,,,,
3379444000.0,92.08,-3.009999990463257,12031147008.0,1347.7098394706895,7.0,-0.012211181223392487,32768.0,24.09861183166504,3.8719027983802334e-15,0.0,2.6891236305236816,-0.026891246438026428,0.15918216109275818,-0.026891235262155533,-1.210719347000122e-08,0.0,-0.006304370239377022,0.5642715096473694,0.011658953220816004,-0.6840970516204834,0.08165042847394943,-0.6904014348983765,0.5675899386405945,3.0392298698425293,0.9985935688018799,,,,,,,
3428548000.0,92.88,-2.7799999713897705,12031147008.0,1333.2221931811762,8.0,-0.01574467495083809,36864.0,27.170867919921875,4.475586568020162e-15,0.0,2.682365894317627,-0.026823654770851135,0.18118059635162354,-0.026823658496141434,2.7939677238464355e-09,0.0,-0.05254391208291054,0.5997400283813477,-0.005783753359790644,-0.6492114067077637,0.07588984817266464,-0.7017552852630615,0.598013162612915,3.072256088256836,0.9987962245941162,,,,,,,
3477916000.0,88.49,-2.7100000381469727,12031147008.0,1369.2723994505652,9.0,-0.012232554145157337,40960.0,30.162237644195557,4.989064716909297e-15,0.0,2.6734347343444824,-0.026734348386526108,0.17758145928382874,-0.02673434652388096,-1.862645149230957e-09,0.0,-0.048996273428201675,0.5940104722976685,0.019401940700339737,-0.6465193033218384,0.08507765084505081,-0.695515513420105,0.5998581647872925,2.9913697242736816,0.9993288516998291,,,,,,,
3527020000.0,81.84,-2.640000104904175,12031147008.0,1346.3460090136905,10.0,-0.0120351891964674,45056.0,33.204546213150024,5.268355196541563e-15,0.0,2.640918731689453,-0.026409193873405457,0.16074205935001373,-0.02640918642282486,-7.450580596923828e-09,0.0,-0.003125106915831566,0.5670562982559204,0.015193978881477999,-0.7112302780151367,0.08658973127603531,-0.7143553495407104,0.5714138746261597,3.0423085689544678,0.9991252422332764,,,,,,,
3576124000.0,85.74,-2.259999990463257,12031147008.0,1331.6717424313301,11.0,-0.005366200115531683,49152.0,36.28037929534912,5.698566618583811e-15,0.0,2.6281533241271973,-0.026281507685780525,0.11267104744911194,-0.026281531900167465,2.421438694000244e-08,0.0,0.08279025554656982,0.4674839377403259,0.06415679172399968,-0.7841399908065796,0.09870525449514389,-0.7013497352600098,0.4832425117492676,3.0758330821990967,0.999086856842041,,,,,,,
3625492000.0,90.68,-2.0299999713897705,12031147008.0,1399.1603820567634,12.0,-0.012011355720460415,53248.0,39.2078492641449,5.5615234639816435e-15,0.0,2.5776286125183105,-0.02577628754079342,0.16040906310081482,-0.02577628567814827,-1.862645149230957e-09,0.0,-0.018490146845579147,0.5661753416061401,0.02660815375820902,-0.732925534248352,0.08352155238389969,-0.7514156699180603,0.5738614201545715,2.9274699687957764,0.9987292289733887,,,,,,,
3674596000.0,86.24,-1.9600000381469727,12031147008.0,1364.954640654681,13.0,-0.007467113900929689,57344.0,42.20868158340454,6.0021432268797525e-15,0.0,2.534867763519287,-0.02534867636859417,0.16033689677715302,-0.02534867636859417,0.0,0.0,0.024425867944955826,0.5658227205276489,0.02958770203752681,-0.7231541872024536,0.09919685870409012,-0.6987283229827881,0.5743839144706726,3.0008323192596436,1.0000030994415283,,,,,,,
3723964000.0,84.4,-2.059999942779541,12031147008.0,1373.3715916962346,14.0,-0.015859689563512802,61440.0,45.19112277030945,5.684688830775997e-15,0.0,2.5465638637542725,-0.025465646758675575,0.18855929374694824,-0.02546563744544983,-9.313225746154785e-09,0.0,-0.08397075533866882,0.6084060668945312,0.05517793584875519,-0.6923021078109741,0.10510894656181335,-0.7762728929519653,0.6259195804595947,2.9824411869049072,0.9991970062255859,,,,,,,
3773596000.0,85.91,-2.859999895095825,12031147008.0,1410.9382534882388,15.0,-0.012947207316756248,65536.0,48.09415555000305,5.4626442258509655e-15,0.0,2.5856711864471436,-0.025856710970401764,0.1566651165485382,-0.025856710970401764,0.0,0.0,-0.016453534364700317,0.5595855712890625,0.052108942485322496,-0.7094931602478027,0.1116102859377861,-0.7259467840194702,0.5747610926628113,2.9030327796936035,0.9985103607177734,,,,,,,
3823228000.0,82.25,-2.8399999141693115,12031147008.0,1389.7114930500954,16.0,-0.01451152190566063,69632.0,51.04152989387512,5.450501161519128e-15,0.0,2.6099367141723633,-0.02609935961663723,0.19134114682674408,-0.026099367067217827,7.450580596923828e-09,0.0,-0.005784541368484497,0.6186617016792297,0.05272145867297029,-0.8013919591903687,0.13899068534374237,-0.8071765303611755,0.6356446743011475,2.9473743438720703,0.9990081787109375,,,,,,,
3872596000.0,82.01,-2.4700000286102295,12031147008.0,1408.7320555648168,17.0,-0.012213497422635555,73728.0,53.94910907745361,5.4088677980956845e-15,0.0,2.63722562789917,-0.026372257620096207,0.18781794607639313,-0.026372255757451057,-1.862645149230957e-09,0.0,0.00985138863325119,0.6128870248794556,0.012741585034615088,-0.8517225384712219,0.14577367901802063,-0.8418711423873901,0.6168294548988342,2.907579183578491,0.9993083477020264,,,,,,,
3922228000.0,79.78,-2.3399999141693115,12031147008.0,1402.4985223038964,18.0,-0.012269101105630398,77824.0,56.86961126327515,5.205905151406398e-15,0.0,2.648306131362915,-0.026483071967959404,0.17048846185207367,-0.02648306079208851,-1.1175870895385742e-08,0.0,0.039730437099933624,0.5826501846313477,0.09226776981726414,-0.8938994407653809,0.13527069985866547,-0.8541690111160278,0.6115460395812988,2.920502185821533,0.9985377788543701,,,,,,,
3971596000.0,81.89,-2.9200000762939453,12031147008.0,1380.0944033532533,19.0,-0.015843577682971954,81920.0,59.83752417564392,4.7618159415563355e-15,0.0,2.652158737182617,-0.026521585881710052,0.17654567956924438,-0.026521585881710052,9.313225746154785e-10,0.0,-0.04234512895345688,0.5927765369415283,0.12158161302984338,-0.8650970458984375,0.15635815262794495,-0.9074422121047974,0.6324706077575684,2.9679129123687744,0.9982681274414062,,,,,,,
4021228000.0,83.86,-2.6500000953674316,12031147008.0,1386.898807201434,20.0,-0.011651195585727692,86016.0,62.79087591171265,4.989064716909297e-15,0.0,2.648571014404297,-0.026485713198781013,0.17060810327529907,-0.026485709473490715,-3.725290298461914e-09,0.0,0.03595223277807236,0.5831009149551392,0.11136749364835052,-0.9166908264160156,0.15579897165298462,-0.8807386159896851,0.6185611486434937,2.9533517360687256,0.9992673397064209,,,,,,,
4070596000.0,82.41,-2.3499999046325684,12031147008.0,1378.4793174373185,21.0,-0.013884318061172962,90112.0,65.76226615905762,5.377642775528102e-15,0.0,2.637131690979004,-0.026371315121650696,0.21109138429164886,-0.026371316984295845,2.7939677238464355e-09,0.0,0.024826165288686752,0.649360716342926,0.10579828752718257,-0.9462110996246338,0.16346462070941925,-0.9213849306106567,0.6867018938064575,2.9713902473449707,0.9988493919372559,,,,,,,
4120228000.0,79.63,-2.359999895095825,12031147008.0,1347.7856477308662,22.0,-0.010838933289051056,94208.0,68.80132508277893,5.622238785640832e-15,0.0,2.6296491622924805,-0.026296481490135193,0.14345644414424896,-0.02629649080336094,9.313225746154785e-09,0.0,0.07292518019676208,0.5307198762893677,0.14108155329801764,-0.8601341247558594,0.16533295810222626,-0.7872089147567749,0.572650134563446,3.0390589237213135,0.9984042644500732,,,,,,,
4169596000.0,76.49,-1.5399999618530273,12031147008.0,1384.5537096489784,23.0,-0.008386743254959583,98304.0,71.75967907905579,5.218048215738236e-15,0.0,2.5891330242156982,-0.025891326367855072,0.12084798514842987,-0.02589133009314537,4.6566128730773926e-09,0.0,0.08589532971382141,0.4841231107711792,0.1601166207622362,-0.7542584538459778,0.18506157398223877,-0.6683631539344788,0.5282583236694336,2.9583539962768555,0.9990963935852051,,,,,,,
4219228000.0,74.9,-1.440000057220459,12031147008.0,1429.881758698042,24.0,-0.009378707036376,102400.0,74.6242516040802,5.178149575790769e-15,0.0,2.5730161666870117,-0.025730151683092117,0.14495670795440674,-0.025730160996317863,8.381903171539307e-09,0.0,0.012348401360213757,0.5383601784706116,0.08808593665550202,-0.6126188635826111,0.16394785046577454,-0.6002703905105591,0.5637621879577637,2.864572525024414,0.9984917640686035,,,,,,,
4268860000.0,74.83,-1.5800000429153442,12031147008.0,1358.861122070319,25.0,-0.009843972511589527,106496.0,77.63854050636292,4.961309141293668e-15,0.0,2.5226402282714844,-0.0252264104783535,0.13613373041152954,-0.025226401165127754,-9.313225746154785e-09,0.0,-0.038381922990083694,0.520442545413971,0.14737899960993417,-0.4717421531677246,0.13069093227386475,-0.5101240873336792,0.5636308193206787,3.014288902282715,0.9987459182739258,,,,,,,
4318492000.0,77.8,-1.8200000524520874,12031147008.0,1396.9286999072638,26.0,-0.010329252108931541,110592.0,80.57068729400635,5.603156827405087e-15,0.0,2.4862098693847656,-0.024862095713615417,0.11846952140331268,-0.024862097576260567,9.313225746154785e-10,0.0,-0.039366550743579865,0.48522862792015076,0.14939692693375017,-0.40860316157341003,0.1140805184841156,-0.4479697048664093,0.526117742061615,2.9321467876434326,0.9992053508758545,,,,,,,
4368124000.0,77.9,-2.0,12031147008.0,1396.2333258563576,27.0,-0.011839520186185837,114688.0,83.50429439544678,5.594483210025203e-15,0.0,2.3969359397888184,-0.02396935410797596,0.13128452003002167,-0.023969359695911407,5.587935447692871e-09,0.0,-0.045750536024570465,0.5104307532310486,0.1374701888259381,-0.3748161792755127,0.12509144842624664,-0.42056670784950256,0.5496038198471069,2.9336071014404297,0.999121904373169,,,,,,,
4417492000.0,77.61,-1.7599999904632568,12031147008.0,1420.872409400292,28.0,-0.007705614902079105,118784.0,86.38703036308289,6.87297441182011e-15,0.0,2.2873215675354004,-0.02287321910262108,0.10040150582790375,-0.02287321537733078,-3.725290298461914e-09,0.0,-0.01796945556998253,0.447804719209671,0.128649309936974,-0.3784804940223694,0.13027626276016235,-0.3964499533176422,0.47972482442855835,2.8827359676361084,0.9988501071929932,,,,,,,
4466980000.0,78.7,-1.6100000143051147,12031147008.0,1379.6965097508264,29.0,-0.011681510135531425,122880.0,89.35579919815063,9.10556352540226e-15,0.0,2.1273975372314453,-0.02127397432923317,0.13004030287265778,-0.02127397432923317,0.0,0.0,-0.07610595971345901,0.5043318271636963,0.1302416023187657,-0.3966727554798126,0.15723295509815216,-0.4727787375450134,0.5407755970954895,2.968768835067749,0.9985482692718506,,,,,,,
4516484000.0,78.16,-1.7999999523162842,12031147008.0,1401.3917756764174,30.0,-0.010081743821501732,126976.0,92.2786078453064,1.2927159342979166e-14,0.0,1.8771271705627441,-0.018771275877952576,0.13392940163612366,-0.018771272152662277,-3.725290298461914e-09,0.0,-0.0494326651096344,0.5152475833892822,0.08933717437773947,-0.47195953130722046,0.21088072657585144,-0.5213922262191772,0.5399296283721924,2.9228086471557617,0.9989080429077148,,,,,,,
4565988000.0,83.18,-1.8600000143051147,12031147008.0,1392.017487373098,31.0,-0.007586624473333359,131072.0,95.22109961509705,1.9369922332757028e-14,0.0,1.58750581741333,-0.01587504707276821,0.10363851487636566,-0.015875058248639107,1.1175870895385742e-08,0.0,0.048042625188827515,0.452790230512619,0.22640480675949903,-0.6258050203323364,0.28064975142478943,-0.5777623653411865,0.5148019194602966,2.9424917697906494,0.9986629486083984,,,,,,,
,,,,,,,,,,,,,,,,,,,,,,,,,,0.008174602873623371,0.19933810830116272,0.18282480537891388,0.008174602873623371,0.19933810830116272,0.18282480537891388,
,,,,,,,,,,,,,,,,,,,,,,,,,,0.00404271250590682,0.1750589907169342,0.1582109034061432,0.00404271250590682,0.1750589907169342,0.1582109034061432,
,,,,,,,,,,,,,,,,,,,,,,,,,,0.00348100159317255,0.15234006941318512,0.14428013563156128,0.00348100159317255,0.15234006941318512,0.14428013563156128,
,,,,,,,,,,,,,,,,,,,,,,,,,,0.003506900742650032,0.14127562940120697,0.13717545568943024,0.003506900742650032,0.14127562940120697,0.13717545568943024,
,,,,,,,,,,,,,,,,,,,,,,,,,,0.003196507226675749,0.13512776792049408,0.12949679791927338,0.003196507226675749,0.13512776792049408,0.12949679791927338,
,,,,,,,,,,,,,,,,,,,,,,,,,,0.002057467121630907,0.12649689614772797,0.11545653641223907,0.002057467121630907,0.12649689614772797,0.11545653641223907,
,,,,,,,,,,,,,,,,,,,,,,,,,,,,,,,,-2.18
4584952000.0,83.95,-1.2799999713897705,11990518784.0,16.107094233632576,32.0,-0.005311045795679092,135168.0,349.5189847946167,7.783704236707933e-15,0.0,1.6216059923171997,-0.01621607504785061,0.06557564437389374,-0.016216060146689415,-1.4901161193847656e-08,0.0,0.0979994684457779,0.3486790359020233,0.5985066018089361,-0.561700701713562,0.33954545855522156,-0.4637012481689453,0.5502837896347046,254.29788517951965,0.9991257190704346,,,,,,,
4584952000.0,77.43,-0.9200000166893005,12041169408.0,1397.650577373199,33.0,-0.005892614368349314,139264.0,352.4496171474457,8.054321098960315e-15,0.0,1.5222666263580322,-0.015222645364701748,0.05086740851402283,-0.01522266585379839,2.0489096641540527e-08,0.0,0.12341734021902084,0.29414981603622437,0.6497077942463925,-0.5543169975280762,0.34941577911376953,-0.4308996796607971,0.49699652194976807,2.9306323528289795,0.9988844394683838,,,,,,,
4584952000.0,76.45,-0.7799999713897705,12041169408.0,1351.3240546952184,34.0,-0.009383912198245525,143360.0,355.4807183742523,7.842684834891145e-15,0.0,1.4976224899291992,-0.014976226724684238,0.08353254199028015,-0.01497622486203909,-1.862645149230957e-09,0.0,0.014128261245787144,0.40854161977767944,0.5714170438028383,-0.5531132221221924,0.36467352509498596,-0.5389849543571472,0.6240491271018982,3.0311012268066406,0.999018669128418,,,,,,,
4584952000.0,80.1,-1.3600000143051147,12041169408.0,1364.3853158302065,35.0,-0.004600397311151028,147456.0,358.4828028678894,8.977193988179977e-15,0.0,1.5027265548706055,-0.015027261339128017,0.05319761484861374,-0.015027265064418316,3.725290298461914e-09,0.0,0.06142624467611313,0.3203859031200409,0.5581566256555179,-0.44555985927581787,0.3123933970928192,-0.38413363695144653,0.48199132084846497,3.002084493637085,0.9988710880279541,,,,,,,
4584952000.0,78.68,-1.2899999618530273,12041169408.0,1392.8656185773043,36.0,-0.007447203155606985,151552.0,361.4235029220581,7.964115478209521e-15,0.0,1.5022532939910889,-0.01502254419028759,0.07291656732559204,-0.015022533014416695,-1.1175870895385742e-08,0.0,0.04360359534621239,0.3794298470020294,0.5875598012666492,-0.4620422124862671,0.36285316944122314,-0.418438583612442,0.5908142924308777,2.940700054168701,0.9990599155426025,,,,,,,
4584952000.0,76.46,-1.1299999952316284,12041169408.0,1363.0477777272647,37.0,-0.0079432912170887,155648.0,364.42853331565857,8.245140681317764e-15,0.0,1.533826470375061,-0.01533825695514679,0.06455391645431519,-0.015338264405727386,7.450580596923828e-09,0.0,0.059183552861213684,0.35445141792297363,0.6103190666881324,-0.5187034606933594,0.41583847999572754,-0.4595199227333069,0.5678088068962097,3.005030393600464,0.9988393783569336,,,,,,,
4584952000.0,79.57,-1.2300000190734863,12041169408.0,1365.5364885573847,38.0,-0.004676563665270805,159744.0,367.4280869960785,6.977057820378718e-15,0.0,1.6183980703353882,-0.016183976083993912,0.059331782162189484,-0.01618397980928421,4.190951585769653e-09,0.0,0.07413393259048462,0.3364451825618744,0.6557675724863692,-0.4313048720359802,0.39671674370765686,-0.3571709096431732,0.5734405517578125,2.999553680419922,0.9993875026702881,,,,,,,
4584952000.0,79.08,-1.2699999809265137,12041169408.0,1403.6098853124342,39.0,-0.011082058772444725,163840.0,370.3462767601013,7.240735788727193e-15,0.0,1.6059995889663696,-0.016059990972280502,0.09652134776115417,-0.0160599946975708,3.725290298461914e-09,0.0,0.00479048490524292,0.4393937587738037,0.6232318507466302,-0.4701351225376129,0.48756664991378784,-0.46534463763237,0.7158414125442505,2.918189764022827,0.9995377063751221,,,,,,,
4584952000.0,79.97,-1.4500000476837158,12041169408.0,1421.6200753480928,40.0,-0.008130364120006561,167936.0,373.2274966239929,6.968384202998834e-15,0.0,1.6728359460830688,-0.0167283583432436,0.06676863133907318,-0.0167283583432436,0.0,0.0,0.035816725343465805,0.3637124001979828,0.7003567173660129,-0.428936243057251,0.4937247037887573,-0.3931195139884949,0.6644401550292969,2.8812198638916016,0.9988453388214111,,,,,,,
4584952000.0,79.28,-1.2899999618530273,12041169408.0,1390.4047730579912,41.0,-0.0063187661580741405,172032.0,376.1734013557434,6.062858548538941e-15,0.0,1.707751750946045,-0.017077535390853882,0.06423693895339966,-0.01707751676440239,-1.7695128917694092e-08,0.0,0.04480757936835289,0.3556642234325409,0.6561634570844814,-0.38638901710510254,0.5003678202629089,-0.34158146381378174,0.6065466403961182,2.9459047317504883,0.999018669128418,,,,,,,
4584952000.0,80.26,-1.4900000095367432,12041169408.0,1352.9352290321006,42.0,-0.009911945089697838,176128.0,379.20089292526245,6.513886652292911e-15,0.0,1.745296597480774,-0.017452960833907127,0.06746253371238708,-0.017452966421842575,5.587935447692871e-09,0.0,0.01640516147017479,0.3669997751712799,0.6721481014504731,-0.40494462847709656,0.48624786734580994,-0.38853949308395386,0.6409540772438049,3.027491569519043,1.0015037059783936,,,,,,,
4584952000.0,80.24,-1.8300000429153442,12041169408.0,1406.099324240543,43.0,-0.013487721793353558,180224.0,382.11391615867615,6.102757188486407e-15,0.0,1.8468828201293945,-0.01846883073449135,0.10723800957202911,-0.01846882700920105,-4.6566128730773926e-09,0.0,-0.03679973632097244,0.4617075026035309,0.6476100381635119,-0.4364367723464966,0.5449133515357971,-0.4732365012168884,0.7777771353721619,2.9130232334136963,0.9986858367919922,,,,,,,
4584952000.0,76.38,-1.9600000381469727,12041169408.0,1362.6504644865045,44.0,-0.014273509383201599,184320.0,385.1198227405548,5.509481759702339e-15,0.0,1.9978307485580444,-0.019978314638137817,0.09345901012420654,-0.01997830718755722,-7.450580596923828e-09,0.0,-0.022467367351055145,0.4318087100982666,0.7264006744850087,-0.46010351181030273,0.6000164747238159,-0.4825708866119385,0.8255319595336914,3.005906581878662,0.9988162517547607,,,,,,,
4584952000.0,75.1,-1.6699999570846558,12041169408.0,1410.4488441989758,45.0,-0.006931377109140158,188416.0,388.0238628387451,5.684688830775997e-15,0.0,2.0754947662353516,-0.020754946395754814,0.07924222946166992,-0.020754946395754814,0.0,0.0,0.041411686688661575,0.39598962664604187,0.7282217328045641,-0.49480730295181274,0.6297348141670227,-0.4533956050872803,0.7595850825309753,2.9040400981903076,0.9990251064300537,,,,,,,
4584952000.0,78.87,-1.3300000429153442,12041169408.0,1316.033654561363,46.0,-0.00949326902627945,192512.0,391.1362452507019,4.789571517171964e-15,0.0,2.165314197540283,-0.021653126925230026,0.10504280030727386,-0.02165314182639122,1.4901161193847656e-08,0.0,0.08171290159225464,0.45106348395347595,0.6902582741634982,-0.6342141628265381,0.7693808674812317,-0.5525013208389282,0.8104716539382935,3.112382411956787,0.9988226890563965,,,,,,,
4584952000.0,80.05,-1.2300000190734863,12041169408.0,1401.9627778496356,47.0,-0.004413216840475798,196608.0,394.0578634738922,4.893654925730573e-15,0.0,2.238154411315918,-0.022381551563739777,0.09328391402959824,-0.02238154411315918,-7.450580596923828e-09,0.0,0.11164383590221405,0.4173080325126648,0.5870099191593432,-0.38852161169052124,0.6025629043579102,-0.2768777906894684,0.6493620872497559,2.9216182231903076,0.9989361763000488,,,,,,,
4584952000.0,76.39,-0.9599999785423279,12041169408.0,1419.3980800801082,48.0,-0.008261991664767265,200704.0,396.94359374046326,5.008146675145042e-15,0.0,2.2570509910583496,-0.022570518776774406,0.08736671507358551,-0.02257050946354866,-9.313225746154785e-09,0.0,0.027974799275398254,0.41712504625320435,0.6161147995959612,-0.3212590515613556,0.5010243654251099,-0.29328423738479614,0.6732333302497864,2.885730266571045,0.9991695880889893,,,,,,,
4584952000.0,77.02,-1.1699999570846558,12041169408.0,1382.562803594755,49.0,-0.007830103859305382,204800.0,399.9062077999115,4.8867160318266656e-15,0.0,2.242245674133301,-0.022422444075345993,0.05013856664299965,-0.022422457113862038,1.30385160446167e-08,0.0,0.003392439801245928,0.31668615341186523,0.7251714129634785,-0.2479994297027588,0.45429909229278564,-0.24460700154304504,0.6040850281715393,2.962614059448242,0.9990293979644775,,,,,,,
4584952000.0,77.76,-1.190000057220459,12041169408.0,1376.75866102389,50.0,-0.007858477532863617,208896.0,402.88131165504456,5.14518982974721e-15,0.0,2.200760841369629,-0.02200760692358017,0.06959331035614014,-0.02200760878622532,9.313225746154785e-10,0.0,0.006636655889451504,0.37306374311447144,0.5524633383335946,-0.21648988127708435,0.37651047110557556,-0.20985324680805206,0.5576590895652771,2.9751038551330566,0.9989702701568604,,,,,,,
4584952000.0,76.63,-1.2200000286102295,12041169408.0,1405.2435109237656,51.0,-0.006702742539346218,212992.0,405.79610896110535,4.6351811278100286e-15,0.0,2.1434853076934814,-0.0214348416775465,0.06928066164255142,-0.021434852853417397,1.1175870895385742e-08,0.0,0.015506360679864883,0.3719605803489685,0.5661930825011768,-0.190812349319458,0.35978829860687256,-0.17530599236488342,0.5647401809692383,2.914797306060791,0.9989995956420898,,,,,,,
4584952000.0,74.32,-1.2300000190734863,12041169408.0,1373.1395383354625,52.0,-0.010392801836133003,217088.0,408.7790541648865,5.159067617555024e-15,0.0,2.03633451461792,-0.020363343879580498,0.06965187191963196,-0.020363343879580498,0.0,0.0,-0.040024835616350174,0.371127188205719,0.6005152707468794,-0.2395530790090561,0.4180993139743805,-0.27957791090011597,0.5871819257736206,2.982945203781128,0.9988782405853271,,,,,,,
4584952000.0,74.28,-1.3700000047683716,12041169408.0,1407.1965780126072,53.0,-0.00533246761187911,221184.0,411.68980598449707,5.077535614184114e-15,0.0,1.9853599071502686,-0.01985359750688076,0.051702678203582764,-0.01985359936952591,1.862645149230957e-09,0.0,0.03463803604245186,0.3197350800037384,0.5854051272200542,-0.17794784903526306,0.3438047468662262,-0.1433098167181015,0.4965675473213196,2.9107518196105957,0.9990670680999756,,,,,,,
4584952000.0,76.07,-0.9900000095367432,12041169408.0,1390.7871375982252,54.0,-0.007373131345957518,225280.0,414.63490080833435,5.608360997833017e-15,0.0,1.9366176128387451,-0.01936618611216545,0.0562523789703846,-0.019366174936294556,-1.1175870895385742e-08,0.0,-0.025280646979808807,0.33450406789779663,0.6499664111577983,-0.20214241743087769,0.3770640194416046,-0.2274230718612671,0.5653879642486572,2.9450948238372803,1.0015990734100342,,,,,,,
4584952000.0,76.7,-1.2400000095367432,12041169408.0,1397.6757065027887,55.0,-0.009649252519011497,229376.0,417.56548047065735,5.856426454897701e-15,0.0,1.8658736944198608,-0.018658751621842384,0.06554722785949707,-0.01865873672068119,-1.4901161193847656e-08,0.0,0.022866440936923027,0.3613910377025604,0.7405209752949969,-0.3247557282447815,0.5547177791595459,-0.3018893003463745,0.709457278251648,2.930579662322998,0.9992895126342773,,,,,,,
4584952000.0,77.82,-1.2300000190734863,12041169408.0,1412.7727623231851,56.0,-0.0071669043973088264,233472.0,420.4647436141968,5.898059818321144e-15,0.0,1.8940296173095703,-0.01894029602408409,0.05410073697566986,-0.01894029602408409,0.0,0.0,0.052989039570093155,0.3246834874153137,0.7406922642948564,-0.31744298338890076,0.5474505424499512,-0.2644539475440979,0.637606143951416,2.8992631435394287,0.9989528656005859,,,,,,,
4584952000.0,75.65,-1.25,12041169408.0,1395.8064539559512,57.0,-0.0083842221647501,237568.0,423.39924788475037,5.752343046339092e-15,0.0,1.8898859024047852,-0.018898846581578255,0.045265115797519684,-0.01889885775744915,1.1175870895385742e-08,0.0,0.07601338624954224,0.2911578416824341,0.7761480000550613,-0.3245505094528198,0.5743251442909241,-0.2485371232032776,0.6153866052627563,2.934504270553589,0.9994258880615234,,,,,,,
4584952000.0,76.51,-1.5399999618530273,12041169408.0,1376.0850917266218,58.0,-0.010438473895192146,241664.0,426.3758080005646,6.003877950355729e-15,0.0,1.9146358966827393,-0.019146371632814407,0.07399782538414001,-0.019146358594298363,-1.30385160446167e-08,0.0,-0.014082306064665318,0.3844911456108093,0.6838377032563525,-0.3111531734466553,0.55550616979599,-0.3252354860305786,0.6838034391403198,2.976560115814209,0.9990055561065674,,,,,,,
4584952000.0,77.33,-1.25,12041169408.0,1360.7970231427553,59.0,-0.006258862093091011,245760.0,429.38580870628357,5.334274688628682e-15,0.0,1.977150321006775,-0.019771501421928406,0.0680910050868988,-0.019771503284573555,2.7939677238464355e-09,0.0,0.0429038479924202,0.36657071113586426,0.6828882564097623,-0.25983449816703796,0.5773633122444153,-0.21693065762519836,0.6509559154510498,3.010000705718994,0.9987277984619141,,,,,,,
4584952000.0,75.1,-1.3700000047683716,12041169408.0,1405.8138606446532,60.0,-0.010100115090608597,249856.0,432.299423456192,5.3724386051001716e-15,0.0,2.034381866455078,-0.020343821495771408,0.09775464236736298,-0.02034381777048111,-3.725290298461914e-09,0.0,-0.029898758977651596,0.441206157207489,0.6151915364737796,-0.22706149518489838,0.505980908870697,-0.25696027278900146,0.711245059967041,2.9136147499084473,0.9992339611053467,,,,,,,
4584952000.0,74.0,-1.6100000143051147,12041169408.0,1370.586650176953,61.0,-0.011578655801713467,253952.0,435.2879247665405,5.559788740505667e-15,0.0,2.0716636180877686,-0.020716633647680283,0.06304797530174255,-0.020716635510325432,9.313225746154785e-10,0.0,-0.043641336262226105,0.35245099663734436,0.662326190431476,-0.21589893102645874,0.46524426341056824,-0.25954025983810425,0.6065269112586975,2.9885013103485107,0.9992308616638184,,,,,,,
4584952000.0,73.7,-1.590000033378601,12041169408.0,1376.85520702474,62.0,-0.010639885440468788,258048.0,438.26282000541687,5.532033164890038e-15,0.0,2.1354827880859375,-0.021354829892516136,0.051456518471241,-0.021354828029870987,-1.862645149230957e-09,0.0,-0.010491803288459778,0.32066813111305237,0.7393468348814443,-0.2129567563533783,0.5176414847373962,-0.22344857454299927,0.6280935406684875,2.9748952388763428,0.998969316482544,,,,,,,
4632440000.0,73.18,-1.3799999952316284,12041169408.0,1398.7014272399422,63.0,-0.008357150480151176,262144.0,441.19125056266785,4.8971243726825264e-15,0.0,2.1939072608947754,-0.02193908579647541,0.06074763834476471,-0.021939072757959366,-1.30385160446167e-08,0.0,-0.0006003323942422867,0.348603755235672,0.7564153322613659,-0.2585785984992981,0.5971685647964478,-0.25917893648147583,0.7063291668891907,2.9284305572509766,0.9991724491119385,,,,,,,
,,,,,,,,,,,,,,,,,,,,,,,,,,0.00353797385469079,0.10201244801282883,0.06885991245508194,0.00353797385469079,0.10201244801282883,0.06885991245508194,
,,,,,,,,,,,,,,,,,,,,,,,,,,0.0018194615840911865,0.06856615841388702,0.05907648801803589,0.0018194615840911865,0.06856615841388702,0.05907648801803589,
,,,,,,,,,,,,,,,,,,,,,,,,,,0.001500126556493342,0.058953117579221725,0.05403729900717735,0.001500126556493342,0.058953117579221725,0.05403729900717735,
,,,,,,,,,,,,,,,,,,,,,,,,,,0.0016527484403923154,0.05431155115365982,0.05154084041714668,0.0016527484403923154,0.05431155115365982,0.05154084041714668,
,,,,,,,,,,,,,,,,,,,,,,,,,,0.0018679075874388218,0.05408762767910957,0.05245499685406685,0.0018679075874388218,0.05408762767910957,0.05245499685406685,
,,,,,,,,,,,,,,,,,,,,,,,,,,0.0012031450169160962,0.05024633929133415,0.04905477166175842,0.0012031450169160962,0.05024633929133415,0.04905477166175842,
,,,,,,,,,,,,,,,,,,,,,,,,,,,,,,,,-2.15
4635048000.0,74.03,-1.590000033378601,11990521856.0,16.11641867541852,64.0,-0.011377453804016113,266240.0,695.3420071601868,5.728056917675417e-15,0.0,2.3030874729156494,-0.023030873388051987,0.0742860808968544,-0.023030873388051987,0.0,0.0,0.002799760550260544,0.38548746705055237,0.7393928946687274,-0.31302905082702637,0.5887962579727173,-0.3102293014526367,0.7551221251487732,254.15075659751892,0.9993429183959961,,,,,,,
4635048000.0,76.08,-1.590000033378601,12041169408.0,1414.997355219671,65.0,-0.009698854759335518,270336.0,698.2367122173309,5.684688830775997e-15,0.0,2.235419750213623,-0.02235419675707817,0.05461951717734337,-0.02235419675707817,0.0,0.0,0.012031033635139465,0.3303345739841461,0.7972339684311475,-0.3606945872306824,0.6338356137275696,-0.3486635684967041,0.7335951328277588,2.894705057144165,0.9987771511077881,,,,,,,
4635048000.0,74.44,-1.399999976158142,12041169408.0,1379.3696107626977,66.0,-0.008259762078523636,274432.0,701.2061846256256,5.84601811404184e-15,0.0,2.245920181274414,-0.022459207102656364,0.039342306554317474,-0.022459201514720917,-5.587935447692871e-09,0.0,0.021469568833708763,0.2797190845012665,0.8320611216065362,-0.28493261337280273,0.5385143160820007,-0.2634630799293518,0.6825689077377319,2.9694724082946777,0.9987788200378418,,,,,,,
4635048000.0,73.72,-1.350000023841858,12041169408.0,1406.886128160932,67.0,-0.010102184489369392,278528.0,704.1175787448883,5.336009412104659e-15,0.0,2.2848687171936035,-0.022848688066005707,0.057474032044410706,-0.022848686203360558,-9.313225746154785e-10,0.0,0.02514168620109558,0.33814772963523865,0.7960644426556932,-0.3885657787322998,0.6437138319015503,-0.36342406272888184,0.74878990650177,2.9113941192626953,0.9985766410827637,,,,,,,
4635048000.0,74.46,-1.5800000429153442,12041169408.0,1372.8997737175437,68.0,-0.011559509672224522,282624.0,707.1010448932648,5.556319293553713e-15,0.0,2.305867910385132,-0.02305866964161396,0.062467653304338455,-0.023058678954839706,9.313225746154785e-09,0.0,0.017849670723080635,0.3530539870262146,0.8565980578560392,-0.5079717040061951,0.8041363954544067,-0.490121990442276,0.9323170185089111,2.983466148376465,0.9987466335296631,,,,,,,
4635048000.0,73.04,-1.5199999809265137,12041169408.0,1408.1008201307168,69.0,-0.008290020748972893,286720.0,710.0099275112152,5.251007961781795e-15,0.0,2.304102897644043,-0.02304103411734104,0.07112617045640945,-0.023041028529405594,-5.587935447692871e-09,0.0,0.0631294846534729,0.371888130903244,0.7771343470172457,-0.47228196263313293,0.7191135287284851,-0.40915244817733765,0.7877541780471802,2.9088826179504395,0.999176025390625,,,,,,,
4635048000.0,72.92,-1.0,12041169408.0,1387.11291112406,70.0,-0.008303539827466011,290816.0,712.9628233909607,5.780098621954721e-15,0.0,2.3556506633758545,-0.023556513711810112,0.06515894830226898,-0.023556506261229515,-7.450580596923828e-09,0.0,0.037446726113557816,0.3590920865535736,0.8090046767104045,-0.4629513621330261,0.7281335592269897,-0.4255046248435974,0.8216643929481506,2.9528958797454834,0.9988284111022949,,,,,,,
4635048000.0,75.01,-1.4199999570846558,12041169408.0,1373.101345961273,71.0,-0.011978640221059322,294912.0,715.9458515644073,5.2197829392142125e-15,0.0,2.3410744667053223,-0.023410739377141,0.07885776460170746,-0.023410744965076447,5.587935447692871e-09,0.0,0.06537777185440063,0.3917636275291443,0.8187537850677065,-0.5183838605880737,0.8815511465072632,-0.4530061185359955,0.9202156662940979,2.9830281734466553,0.9989838600158691,,,,,,,
4635048000.0,76.65,-1.6200000047683716,12041169408.0,1403.2003817256834,72.0,-0.008073080331087112,299008.0,718.8648929595947,5.559788740505667e-15,0.0,2.382363796234131,-0.023823626339435577,0.04503698647022247,-0.023823637515306473,1.1175870895385742e-08,0.0,0.01226651482284069,0.2999090850353241,0.8544307995736775,-0.32235145568847656,0.6914529800415039,-0.3100849390029907,0.7860584855079651,2.919041395187378,0.9992015361785889,,,,,,,
4635048000.0,79.89,-1.5199999809265137,12041169408.0,1350.1547961903025,73.0,-0.008817881345748901,303104.0,721.8986191749573,4.378442053365461e-15,0.0,2.442033290863037,-0.02442033216357231,0.05256658419966698,-0.02442033216357231,0.0,0.0,0.008310338482260704,0.32417550683021545,0.8634516533554734,-0.38267821073532104,0.8290477395057678,-0.374367892742157,0.8772774934768677,3.033726215362549,0.9991097450256348,,,,,,,
4635048000.0,78.33,-1.3300000429153442,12041169408.0,1355.5725608878042,74.0,-0.009079072624444962,307200.0,724.9202206134796,5.2388648974499574e-15,0.0,2.4093127250671387,-0.024093128740787506,0.0519297793507576,-0.024093126878142357,-2.7939677238464355e-09,0.0,0.019994916394352913,0.3216908872127533,0.8374243124652734,-0.3030008375644684,0.7331399321556091,-0.28300589323043823,0.7978309988975525,3.021601438522339,0.9988760948181152,,,,,,,
4635048000.0,76.71,-1.3200000524520874,12041169408.0,1413.8065751394129,75.0,-0.010320681147277355,311296.0,727.8173637390137,5.521624824034177e-15,0.0,2.4359495639801025,-0.024359500035643578,0.03654191642999649,-0.02435949444770813,-5.587935447692871e-09,0.0,-0.004518602509051561,0.27033546566963196,0.8715189317855699,-0.22304971516132355,0.6589218378067017,-0.22756831347942352,0.7541946768760681,2.8971431255340576,0.9990315437316895,,,,,,,
4635048000.0,75.77,-0.9900000095367432,12041169408.0,1386.940906099107,76.0,-0.0009863798040896654,315392.0,730.7706258296967,5.303049666061099e-15,0.0,2.425952672958374,-0.024259526282548904,0.03782575577497482,-0.024259526282548904,0.0,0.0,0.04005839303135872,0.2721486985683441,0.8027117737507786,-0.16847939789295197,0.5835689306259155,-0.12842100858688354,0.6127110123634338,2.9532620906829834,0.9991450309753418,,,,,,,
4635048000.0,75.84,-0.5400000214576721,12041169408.0,1352.0117926545852,77.0,-0.004325186368077993,319488.0,733.8001852035522,5.972652927788147e-15,0.0,2.3782520294189453,-0.023782523348927498,0.038567252457141876,-0.0237825196236372,-3.725290298461914e-09,0.0,0.017194010317325592,0.2772320806980133,0.8615813277436133,-0.2440061867237091,0.68604975938797,-0.2268121838569641,0.7451542019844055,3.029559373855591,0.9992742538452148,,,,,,,
4635048000.0,76.52,-0.8999999761581421,12041169408.0,1376.3782361057845,78.0,-0.008173784241080284,323584.0,736.7761113643646,5.800915303666443e-15,0.0,2.4058690071105957,-0.024058682844042778,0.03416241332888603,-0.024058690294623375,7.450580596923828e-09,0.0,-0.004148169420659542,0.2613891661167145,0.87095814028331,-0.16707992553710938,0.6623718738555908,-0.17122811079025269,0.7276496291160583,2.975926160812378,0.9989559650421143,,,,,,,
4635048000.0,77.75,-0.9800000190734863,12041169408.0,1341.1430282162873,79.0,-0.006326545961201191,327680.0,739.8302226066589,5.653463808208414e-15,0.0,2.390770435333252,-0.023907696828246117,0.06237587332725525,-0.023907704278826714,7.450580596923828e-09,0.0,0.004932016599923372,0.35321083664894104,0.7998380826667357,-0.2244405448436737,0.7161107659339905,-0.21950852870941162,0.789483904838562,3.0541112422943115,0.9991800785064697,,,,,,,
4635048000.0,76.6,-1.2899999618530273,12041169408.0,1411.4655736570867,80.0,-0.01229080930352211,331776.0,742.7321708202362,5.870304242705515e-15,0.0,2.4056663513183594,-0.02405667118728161,0.06394366919994354,-0.02405666373670101,-6.984919309616089e-09,0.0,-0.06353279948234558,0.35196754336357117,0.7509902410466415,-0.194163978099823,0.5686202049255371,-0.2576967477798462,0.7053333520889282,2.9019482135772705,0.9991776943206787,,,,,,,
4635048000.0,75.18,-1.2300000190734863,12041169408.0,1415.156572780994,81.0,-0.004230711609125137,335872.0,745.6265501976013,5.410602521571661e-15,0.0,2.451270341873169,-0.024512698873877525,0.031969934701919556,-0.024512702599167824,3.725290298461914e-09,0.0,-0.012471125461161137,0.2525864839553833,0.8276967830500139,-0.09215320646762848,0.5409933924674988,-0.10462433099746704,0.6085038781166077,2.8943793773651123,0.9990687370300293,,,,,,,
4635048000.0,78.54,-1.090000033378601,12041169408.0,1400.5355160331967,82.0,-0.007104267366230488,339968.0,748.5511457920074,6.63358257213531e-15,0.0,2.4674112796783447,-0.024674108251929283,0.04100900515913963,-0.02467411197721958,4.190951585769653e-09,0.0,-0.006090085953474045,0.2863580584526062,0.8345983516794252,-0.16384519636631012,0.6076251864433289,-0.16993525624275208,0.7041083574295044,2.924595594406128,0.9987409114837646,,,,,,,
4635048000.0,78.08,-1.0299999713897705,12041169408.0,1406.033729843866,83.0,-0.00724832434207201,344064.0,751.4643049240112,6.737665980693919e-15,0.0,2.501664161682129,-0.025016628205776215,0.04012114554643631,-0.02501664124429226,1.30385160446167e-08,0.0,-0.020734436810016632,0.2825453281402588,0.8186608042599314,-0.15765638649463654,0.5744557976722717,-0.17839083075523376,0.663502037525177,2.913159132003784,0.9993500709533691,,,,,,,
4635048000.0,76.26,-0.8100000023841858,12041169408.0,1356.4601697467285,84.0,-0.004381763748824596,348160.0,754.4839291572571,5.7245874707234634e-15,0.0,2.4979162216186523,-0.024979162961244583,0.04494043439626694,-0.024979161098599434,-2.7939677238464355e-09,0.0,0.020908959209918976,0.2991078794002533,0.7789818377184022,-0.17020773887634277,0.5973726511001587,-0.1492987871170044,0.6362295746803284,3.0196242332458496,0.9990265369415283,,,,,,,
4635048000.0,75.97,-0.5600000023841858,12041169408.0,1403.3724312493393,85.0,-0.0023853504098951817,352256.0,757.4026126861572,6.576336697428076e-15,0.0,2.5169084072113037,-0.02516908384859562,0.03272990882396698,-0.02516908384859562,-4.656612873077393e-10,0.0,0.01805506832897663,0.2552444636821747,0.7867580555746346,-0.08527728915214539,0.5101175308227539,-0.0672222152352333,0.5527388453483582,2.9186835289001465,1.0004570484161377,,,,,,,
4635048000.0,76.95,-0.6700000166893005,12041169408.0,1353.1317270376996,86.0,-0.006539741065353155,356352.0,760.4296646118164,6.8486882831564344e-15,0.0,2.5329368114471436,-0.02532936818897724,0.049004726111888885,-0.02532936818897724,0.0,0.0,0.003584945574402809,0.3130823075771332,0.7287270209799173,-0.13396961987018585,0.5261952877044678,-0.1303846687078476,0.6011118292808533,3.0270519256591797,1.0011868476867676,,,,,,,
4635048000.0,74.34,-1.2000000476837158,12041169408.0,1404.9002594178712,87.0,-0.00844067707657814,360448.0,763.345174074173,6.260617024800297e-15,0.0,2.5562095642089844,-0.02556208334863186,0.062547467648983,-0.025562094524502754,1.1175870895385742e-08,0.0,-0.05554493889212608,0.3493415415287018,0.820392287194396,-0.2673566937446594,0.7319347858428955,-0.3229016661643982,0.8243045806884766,2.9155094623565674,0.9991772174835205,,,,,,,
4635048000.0,80.69,-1.1100000143051147,12041169408.0,1366.6003500369018,88.0,-0.004669729620218277,364544.0,766.3423926830292,6.904199434387692e-15,0.0,2.5901246070861816,-0.025901246815919876,0.07008153200149536,-0.025901244953274727,-1.862645149230957e-09,0.0,-0.005450177937746048,0.3743896186351776,0.7222080305857872,-0.18227046728134155,0.6878539323806763,-0.1877206265926361,0.7103362083435059,2.997218608856201,0.9991450309753418,,,,,,,
4635048000.0,81.37,-0.7099999785423279,12041169408.0,1349.9194901257117,89.0,-0.006698990240693092,368640.0,769.3766477108002,7.148795444500422e-15,0.0,2.592674493789673,-0.025926737114787102,0.058314815163612366,-0.0259267445653677,7.450580596923828e-09,0.0,-0.005063815042376518,0.3415149450302124,0.789694227309358,-0.17860789597034454,0.6575334668159485,-0.1836717128753662,0.7447048425674438,3.034255027770996,0.9989364147186279,,,,,,,
4635048000.0,78.71,-0.47999998927116394,12041169408.0,1380.5626377208102,90.0,-0.002150552347302437,372736.0,772.343554019928,7.426351200656711e-15,0.0,2.6023848056793213,-0.026023849844932556,0.08205163478851318,-0.026023847982287407,-9.313225746154785e-10,0.0,0.0424785353243351,0.4029124975204468,0.6682941321671687,-0.1374736726284027,0.6394334435462952,-0.09499514102935791,0.6995747685432434,2.9669063091278076,0.9992022514343262,,,,,,,
4635048000.0,80.67,-0.6600000262260437,12041169408.0,1390.5980113973244,91.0,-0.0035468097776174545,376832.0,775.2890493869781,7.556455461354972e-15,0.0,2.604787826538086,-0.02604786865413189,0.08440449833869934,-0.026047877967357635,9.313225746154785e-09,0.0,0.0005770130082964897,0.41091346740722656,0.634386035501993,-0.17063230276107788,0.5506351590156555,-0.17005527019500732,0.6795775294303894,2.945495367050171,0.9993987083435059,,,,,,,
4635048000.0,79.33,-0.7599999904632568,12041169408.0,1377.2333563328245,92.0,-0.004695269279181957,380928.0,778.2631278038025,7.2476746826311e-15,0.0,2.6021971702575684,-0.026021966710686684,0.049278371036052704,-0.026021970435976982,3.725290298461914e-09,0.0,0.02729836292564869,0.3127865493297577,0.7934111973789373,-0.17062538862228394,0.5946474075317383,-0.1433270275592804,0.6881683468818665,2.974078416824341,0.999197244644165,,,,,,,
4635048000.0,79.08,-0.6899999976158142,12041169408.0,1360.5524981256624,93.0,-0.006990169174969196,385024.0,781.2736694812775,7.73686670285656e-15,0.0,2.604888677597046,-0.02604888193309307,0.06740398705005646,-0.02604888565838337,3.725290298461914e-09,0.0,-0.03453538566827774,0.36557886004447937,0.7997444654790625,-0.20881015062332153,0.6378393769264221,-0.24334554374217987,0.8169374465942383,3.0105416774749756,0.9988524913787842,,,,,,,
4635048000.0,77.96,-1.1299999952316284,12041169408.0,1371.5029051255242,94.0,-0.00712969247251749,389120.0,784.2601742744446,8.014422459012849e-15,0.0,2.5824263095855713,-0.02582426182925701,0.06358546763658524,-0.02582426182925701,0.0,0.0,-0.011470813304185867,0.3564693331718445,0.7988382871598348,-0.35664278268814087,0.7507100701332092,-0.36811363697052,0.794784665107727,2.9865047931671143,0.998986005783081,,,,,,,
4635048000.0,78.66,-1.1100000143051147,12041169408.0,1396.4171778502814,95.0,-0.006882127374410629,393216.0,787.1933951377869,7.870440410506774e-15,0.0,2.575061798095703,-0.025750625878572464,0.03986837714910507,-0.025750616565346718,-9.313225746154785e-09,0.0,0.011283648200333118,0.2821859121322632,0.8712192531716143,-0.2120460718870163,0.7268969416618347,-0.20076243579387665,0.7863390445709229,2.933220863342285,0.999169111251831,,,,,,,
,,,,,,,,,,,,,,,,,,,,,,,,,,0.00803368166089058,0.07087960839271545,0.052949003875255585,0.00803368166089058,0.07087960839271545,0.052949003875255585,
,,,,,,,,,,,,,,,,,,,,,,,,,,0.0038513820618391037,0.05134038254618645,0.04784107953310013,0.0038513820618391037,0.05134038254618645,0.04784107953310013,
,,,,,,,,,,,,,,,,,,,,,,,,,,0.00295434333384037,0.04801922291517258,0.04577241465449333,0.00295434333384037,0.04801922291517258,0.04577241465449333,
,,,,,,,,,,,,,,,,,,,,,,,,,,0.003376159816980362,0.04735412821173668,0.04663679003715515,0.003376159816980362,0.04735412821173668,0.04663679003715515,
,,,,,,,,,,,,,,,,,,,,,,,,,,0.002738082315772772,0.043457262217998505,0.04213964566588402,0.002738082315772772,0.043457262217998505,0.04213964566588402,
,,,,,,,,,,,,,,,,,,,,,,,,,,0.002568617230281234,0.04196075722575188,0.041219841688871384,0.002568617230281234,0.04196075722575188,0.041219841688871384,
,,,,,,,,,,,,,,,,,,,,,,,,,,,,,,,,-1.65
4635080000.0,85.14,-0.8500000238418579,11990521856.0,16.091930138974142,96.0,-0.003704661037772894,397312.0,1041.7309157848358,6.813993813636898e-15,0.0,2.596635103225708,-0.025966353714466095,0.060153327882289886,-0.025966349989175797,-3.725290298461914e-09,0.0,0.006963609717786312,0.34682491421699524,0.6995994621357726,-0.13230568170547485,0.5450589060783386,-0.12534207105636597,0.6327905058860779,254.53752064704895,0.9991281032562256,,,,,,,
4635080000.0,84.2,-0.5,12041169408.0,1399.8590176418618,97.0,-0.0020472451578825712,401408.0,1044.6569247245789,7.419412306752804e-15,0.0,2.588237762451172,-0.025882376357913017,0.038031190633773804,-0.025882376357913017,0.0,0.0,0.010145416483283043,0.2756410539150238,0.7922859889453848,-0.06879116594791412,0.49734926223754883,-0.05864574760198593,0.6047989726066589,2.926008939743042,0.9991312026977539,,,,,,,
4635080000.0,79.35,-0.47999998927116394,12041169408.0,1337.2015322048917,98.0,-0.004357135854661465,405504.0,1047.7200381755829,7.200837148779726e-15,0.0,2.595918655395508,-0.025959182530641556,0.07761693000793457,-0.025959186255931854,4.6566128730773926e-09,0.0,-0.022872282192111015,0.3933808505535126,0.7690822401498056,-0.2130371630191803,0.6224647760391235,-0.23590946197509766,0.8186241388320923,3.0631134510040283,0.9995524883270264,,,,,,,
4635080000.0,80.31,-0.4399999976158142,12041169408.0,1310.2988353734263,99.0,-0.00282494374550879,409600.0,1050.8460426330566,7.41594285980085e-15,0.0,2.602659225463867,-0.026026584208011627,0.04096344858407974,-0.026026591658592224,7.450580596923828e-09,0.0,0.026060210540890694,0.28507471084594727,0.7788617418777475,-0.1395091712474823,0.5108043551445007,-0.11344897001981735,0.6062151789665222,3.126004457473755,0.9989376068115234,,,,,,,
4635080000.0,81.0,-0.25,12041169408.0,1361.5534622238158,100.0,-0.0011580310529097915,413696.0,1053.8543710708618,8.357897707256257e-15,0.0,2.588172435760498,-0.025881709530949593,0.061583422124385834,-0.025881724432110786,1.4901161193847656e-08,0.0,0.07460643351078033,0.3429715037345886,0.7735076120632146,-0.245914027094841,0.6870748996734619,-0.17130759358406067,0.7206613421440125,3.008328437805176,0.9989171028137207,,,,,,,
4635080000.0,80.13,-0.15000000596046448,12041169408.0,1391.6470717270731,101.0,-0.0007739955326542258,417792.0,1056.7976460456848,7.556455461354972e-15,0.0,2.5827150344848633,-0.02582714706659317,0.039909377694129944,-0.02582714892923832,1.862645149230957e-09,0.0,0.009393936023116112,0.2824003994464874,0.8217643512789811,-0.06197091192007065,0.6142526268959045,-0.05257697403430939,0.6689104437828064,2.943274974822998,0.9991312026977539,,,,,,,
4635080000.0,80.39,-0.15000000596046448,12041169408.0,1356.5170428556055,102.0,-0.00025845321943052113,421888.0,1059.8171436786652,7.724723638524722e-15,0.0,2.562744617462158,-0.025627436116337776,0.03681023046374321,-0.025627445429563522,9.313225746154785e-09,0.0,0.04179971665143967,0.26812461018562317,0.7741737249245335,-0.023388750851154327,0.5333037972450256,0.01841096207499504,0.5642212629318237,3.0194976329803467,0.9986546039581299,,,,,,,
4635080000.0,80.99,0.09000000357627869,12041169408.0,1360.1899137270414,103.0,0.0024607896339148283,425984.0,1062.8284878730774,8.370040771588094e-15,0.0,2.5545263290405273,-0.025545258074998856,0.0621182844042778,-0.025545261800289154,3.725290298461914e-09,0.0,0.09204623848199844,0.34028270840644836,0.6942713378774554,-0.11434006690979004,0.5936725735664368,-0.022293830290436745,0.6154202818870544,3.0113441944122314,0.9991719722747803,,,,,,,
4635080000.0,79.55,0.1599999964237213,12041169408.0,1385.0145910543984,104.0,-0.0003894309629686177,430080.0,1065.7858574390411,8.416878305439468e-15,0.0,2.5502634048461914,-0.025502633303403854,0.06525098532438278,-0.025502633303403854,0.0,0.0,0.009516334161162376,0.36116930842399597,0.5539275214375153,0.01135965995490551,0.47355616092681885,0.020875994116067886,0.5407644510269165,2.957369565963745,0.9998190402984619,,,,,,,
4635080000.0,80.65,0.25999999046325684,12041169408.0,1376.1042707296708,105.0,0.003903940785676241,434176.0,1068.7623760700226,8.56779924784945e-15,0.0,2.5407986640930176,-0.025407986715435982,0.046725329011678696,-0.025407986715435982,0.0,0.0,0.03920189291238785,0.3032100200653076,0.4593792212516512,0.09533987939357758,0.4744453430175781,0.13454176485538483,0.41237959265708923,2.9765186309814453,0.9988768100738525,,,,,,,
4635080000.0,79.79,0.009999999776482582,12041169408.0,1350.1371825267343,106.0,-0.0022158678621053696,438272.0,1071.7961418628693,9.754350105417586e-15,0.0,2.505617141723633,-0.02505616284906864,0.05275316908955574,-0.02505617029964924,7.450580596923828e-09,0.0,-0.05116898566484451,0.32080090045928955,0.7865438166292551,0.049208853393793106,0.5757392048835754,-0.001960141584277153,0.6943543553352356,3.0337657928466797,0.9990372657775879,,,,,,,
4635080000.0,78.04,-0.20000000298023224,12041169408.0,1412.4000447236015,107.0,-0.0014365268871188164,442368.0,1074.696170091629,9.605163886483581e-15,0.0,2.49655818939209,-0.024965588003396988,0.07689391821622849,-0.02496558055281639,-8.381903171539307e-09,0.0,-0.05079025775194168,0.3889024257659912,0.4912090202251803,0.05179842561483383,0.384524941444397,0.0010081753134727478,0.5452189445495605,2.9000282287597656,0.9986932277679443,,,,,,,
4635080000.0,79.49,-0.15000000596046448,12041169408.0,1377.2142562481351,108.0,-0.000130982487462461,446464.0,1077.6702897548676,9.738737594133795e-15,0.0,2.4286818504333496,-0.024286817759275436,0.04289983958005905,-0.024286817759275436,9.313225746154785e-10,0.0,-0.00422534067183733,0.29292112588882446,0.7569503487004492,0.010584951378405094,0.5402151942253113,0.006359614431858063,0.5941596627235413,2.9741196632385254,0.999291181564331,,,,,,,
4635080000.0,80.98,-0.07999999821186066,12041169408.0,1343.6245105568005,109.0,0.0017061610706150532,450560.0,1080.7187604904175,9.712716741994143e-15,0.0,2.407331943511963,-0.024073312059044838,0.058848246932029724,-0.024073319509625435,7.450580596923828e-09,0.0,-0.007628891617059708,0.3430263102054596,0.7191777141654039,0.07464599609375,0.5929479598999023,0.06701710820198059,0.6473089456558228,3.0484707355499268,0.9989371299743652,,,,,,,
4635080000.0,81.63,0.4000000059604645,12041169408.0,1374.9467731482216,110.0,0.0022360077127814293,454656.0,1083.6977849006653,1.0198439315267649e-14,0.0,2.3837733268737793,-0.023837730288505554,0.06331536918878555,-0.023837732151150703,1.862645149230957e-09,0.0,0.0013889390975236893,0.3558928370475769,0.4916590386846188,0.1366906464099884,0.4491667151451111,0.13807959854602814,0.4991622567176819,2.9790244102478027,0.9991769790649414,,,,,,,
4635080000.0,79.17,-0.05000000074505806,12041169408.0,1386.8405895328258,111.0,-0.003689547535032034,458752.0,1086.6512606143951,9.391792898938434e-15,0.0,2.3547487258911133,-0.02354748733341694,0.09970303624868393,-0.02354748733341694,0.0,0.0,-0.08508504927158356,0.4384216368198395,0.4664738555399738,0.0837070420384407,0.4404158592224121,-0.0013780072331428528,0.600225031375885,2.9534757137298584,0.998720645904541,,,,,,,
4635080000.0,82.79,-0.07999999821186066,12041169408.0,1384.4173681074549,112.0,0.0034358585253357887,462848.0,1089.6099059581757,1.0783041126671833e-14,0.0,2.2549633979797363,-0.022549640387296677,0.053180210292339325,-0.02254963293671608,-7.450580596923828e-09,0.0,0.03937174007296562,0.3237836956977844,0.3093324680846429,0.10487368702888489,0.42351019382476807,0.14424541592597961,0.38960134983062744,2.9586453437805176,0.9994955062866211,,,,,,,
4635080000.0,85.58,-0.05000000074505806,12041169408.0,1353.6539388083877,113.0,-0.005427398253232241,466944.0,1092.6357901096344,1.0732734145868505e-14,0.0,2.1952433586120605,-0.021952437236905098,0.10271532833576202,-0.0219524335116148,-3.725290298461914e-09,0.0,-0.0913773775100708,0.4439920485019684,0.43192711250614546,0.12939120829105377,0.3382594585418701,0.03801383823156357,0.5890785455703735,3.0258841514587402,1.0025577545166016,,,,,,,
4635080000.0,89.79,-0.3400000035762787,12041169408.0,1351.955722247317,114.0,-0.003975435625761747,471040.0,1095.6654751300812,1.148039996401451e-14,0.0,2.153022289276123,-0.02153022214770317,0.08810213208198547,-0.02153022214770317,0.0,0.0,-0.06856048107147217,0.4141806364059448,0.46071660876988063,0.08417640626430511,0.3448106348514557,0.015615920536220074,0.5640028119087219,3.0296850204467773,0.9990694522857666,,,,,,,
4635080000.0,91.88,-0.7599999904632568,12041169408.0,1398.1419531801175,115.0,-0.0037122408393770456,475136.0,1098.5950775146484,1.0807327255335508e-14,0.0,2.2413063049316406,-0.02241305634379387,0.10978963971138,-0.022413061931729317,6.51925802230835e-09,0.0,-0.05056746304035187,0.465913325548172,0.2606564066278474,0.09183372557163239,0.35673269629478455,0.04126626253128052,0.5418536067008972,2.9296023845672607,0.9990811347961426,,,,,,,
4635080000.0,91.24,-0.27000001072883606,12041169408.0,1395.1402933877318,116.0,0.003052538726478815,479232.0,1101.5309829711914,1.0201908762219603e-14,0.0,2.2593941688537598,-0.022593941539525986,0.07413443922996521,-0.022593941539525986,0.0,0.0,0.05542213097214699,0.3810940980911255,0.35550130594104323,0.03843113034963608,0.3548942506313324,0.09385326504707336,0.4747021794319153,2.9359054565429688,0.9989719390869141,,,,,,,
4635080000.0,91.36,0.6600000262260437,12041169408.0,1381.671940651028,117.0,0.00451784860342741,483328.0,1104.4955072402954,9.63812363252714e-15,0.0,2.2766382694244385,-0.022766366600990295,0.052978724241256714,-0.02276638150215149,1.4901161193847656e-08,0.0,0.03874143958091736,0.3232368528842926,0.3722465301824769,0.04731970280408859,0.22804784774780273,0.08606113493442535,0.4079681932926178,2.964524269104004,0.9990808963775635,,,,,,,
4635080000.0,93.85,0.5899999737739563,12041169408.0,1354.0348167720006,118.0,5.820766091346741e-11,487424.0,1107.5205402374268,1.1324274851176597e-14,0.0,2.2412514686584473,-0.022412510588765144,0.05593765527009964,-0.022412514314055443,3.725290298461914e-09,0.0,0.002652488648891449,0.3345079720020294,0.4802296040239026,0.018403660506010056,0.25223127007484436,0.021056149154901505,0.463981568813324,3.0250329971313477,0.9992547035217285,,,,,,,
4635080000.0,90.16,0.11999999731779099,12041169408.0,1409.4073310084773,119.0,0.0021339308004826307,491520.0,1110.4267263412476,1.1230599783473849e-14,0.0,2.2058000564575195,-0.022058002650737762,0.04215586930513382,-0.022058000788092613,-1.862645149230957e-09,0.0,0.047501809895038605,0.28648796677589417,0.3773011455632216,0.026438983157277107,0.2130969762802124,0.07394079118967056,0.36305078864097595,2.906186103820801,0.9984643459320068,,,,,,,
4635080000.0,88.25,0.3700000047683716,12041169408.0,1402.8802366394443,120.0,0.002672753995284438,495616.0,1113.346433877945,1.1631320906424492e-14,0.0,2.1906073093414307,-0.021906064823269844,0.03675687313079834,-0.02190607227385044,7.450580596923828e-09,0.0,0.025293195620179176,0.26998481154441833,0.4823037446547098,0.0435759499669075,0.23056605458259583,0.06886914372444153,0.3752336800098419,2.9197075366973877,0.998997688293457,,,,,,,
4635080000.0,83.89,0.6000000238418579,12041169408.0,1390.1096733678608,121.0,0.006027009338140488,499712.0,1116.2929639816284,1.0942635686461699e-14,0.0,2.2245497703552246,-0.022245517000555992,0.02140556462109089,-0.02224549651145935,-2.0023435354232788e-08,0.0,0.08353603631258011,0.18931879103183746,0.5368019738999066,0.04986243695020676,0.23153086006641388,0.13339847326278687,0.27817007899284363,2.9465301036834717,1.0040287971496582,,,,,,,
4635080000.0,83.82,0.6399999856948853,12041169408.0,1364.2464171781373,122.0,0.0018794131465256214,503808.0,1119.295354127884,1.2007755900711459e-14,0.0,2.2190756797790527,-0.02219075709581375,0.04793698713183403,-0.02219075709581375,0.0,0.0,0.018948810175061226,0.30909261107444763,0.39056262451859225,0.05596201866865158,0.22281067073345184,0.07491083443164825,0.39593517780303955,3.002390146255493,0.9985957145690918,,,,,,,
4635080000.0,87.69,0.5600000023841858,12041169408.0,1368.5965392884996,123.0,0.005111324600875378,507904.0,1122.2882010936737,1.2845627339608257e-14,0.0,2.163099765777588,-0.021630985662341118,0.0327528640627861,-0.021630996838212013,1.1175870895385742e-08,0.0,0.07512189447879791,0.24469786882400513,0.41335705690961144,0.05550234019756317,0.19501790404319763,0.13062423467636108,0.31947973370552063,2.992846965789795,0.9983162879943848,,,,,,,
4635080000.0,87.15,0.7699999809265137,12041169408.0,1400.6753935332656,124.0,0.0060628848150372505,512000.0,1125.2125046253204,1.3334819359833716e-14,0.0,2.1608498096466064,-0.021608497947454453,0.04220543056726456,-0.021608497947454453,0.0,0.0,0.07127112150192261,0.2816925048828125,0.4934094917186609,0.11602037400007248,0.264893114566803,0.18729150295257568,0.3957735002040863,2.9243035316467285,0.9990987777709961,,,,,,,
4635080000.0,81.91,0.8100000023841858,12041169408.0,1397.1911351695123,125.0,0.004723595455288887,516096.0,1128.1441006660461,1.3527373665667142e-14,0.0,2.2386300563812256,-0.022386303171515465,0.04207710549235344,-0.022386299446225166,-3.725290298461914e-09,0.0,0.02918981947004795,0.2886563539505005,0.48939560117760894,0.10158374905586243,0.2724058926105499,0.13077357411384583,0.4039604961872101,2.931596040725708,0.9987998008728027,,,,,,,
4635080000.0,79.64,0.6499999761581421,12041169408.0,1341.6893453201199,126.0,0.003518459852784872,520192.0,1131.1969683170319,1.2888995426507677e-14,0.0,2.318321704864502,-0.02318320982158184,0.025906745344400406,-0.023183217272162437,7.450580596923828e-09,0.0,0.021034710109233856,0.2266794741153717,0.5484587703321347,0.15622538328170776,0.24945540726184845,0.17726007103919983,0.33733657002449036,3.0528676509857178,0.999448299407959,,,,,,,
4635080000.0,82.36,0.8199999928474426,12041169408.0,1360.0912759613752,127.0,0.006914244964718819,524288.0,1134.2085309028625,1.2595827159067596e-14,0.0,2.4407997131347656,-0.02440801076591015,0.03740380331873894,-0.024407995864748955,-1.4901161193847656e-08,0.0,0.03159858286380768,0.271711528301239,0.4577279403674309,0.2619636058807373,0.2153152972459793,0.29356223344802856,0.36897721886634827,3.0115625858306885,0.9990732669830322,,,,,,,
,,,,,,,,,,,,,,,,,,,,,,,,,,0.0165681391954422,0.07454866170883179,0.0637274831533432,0.0165681391954422,0.07454866170883179,0.0637274831533432,
,,,,,,,,,,,,,,,,,,,,,,,,,,0.0072510759346187115,0.05677088722586632,0.0545254684984684,0.0072510759346187115,0.05677088722586632,0.0545254684984684,
,,,,,,,,,,,,,,,,,,,,,,,,,,0.0062878308817744255,0.05319049581885338,0.05236608535051346,0.0062878308817744255,0.05319049581885338,0.05236608535051346,
,,,,,,,,,,,,,,,,,,,,,,,,,,0.0046888128854334354,0.04963254556059837,0.04892507940530777,0.0046888128854334354,0.04963254556059837,0.04892507940530777,
,,,,,,,,,,,,,,,,,,,,,,,,,,0.005045877303928137,0.04752781242132187,0.04758024960756302,0.005045877303928137,0.04752781242132187,0.04758024960756302,
,,,,,,,,,,,,,,,,,,,,,,,,,,0.004516249988228083,0.04581870883703232,0.04593772068619728,0.004516249988228083,0.04581870883703232,0.04593772068619728,
,,,,,,,,,,,,,,,,,,,,,,,,,,,,,,,,0.44
4635340000.0,87.62,1.0,11990521856.0,16.092496989905023,128.0,0.0059762978926301,528384.0,1388.7370855808258,9.924353006063313e-15,0.0,2.4622936248779297,-0.024622919037938118,0.03860703855752945,-0.02462293580174446,1.6763806343078613e-08,0.0,0.06507550179958344,0.27017971873283386,0.5637883145929662,0.1275465190410614,0.2553163766860962,0.19262203574180603,0.40907609462738037,254.52855467796326,0.999178409576416,,,,,,,
4635340000.0,86.11,0.9700000286102295,12041169408.0,1339.8022711303167,129.0,0.007074855733662844,532480.0,1391.7942531108856,9.804657086220914e-15,0.0,2.482839584350586,-0.024828389286994934,0.03115621581673622,-0.024828394874930382,4.6566128730773926e-09,0.0,0.06190572679042816,0.24185612797737122,0.6015845306774652,0.18030112981796265,0.26712730526924133,0.242206871509552,0.3831678330898285,3.0571675300598145,0.9990901947021484,,,,,,,
4635340000.0,87.48,0.8700000047683716,12041169408.0,1382.0468482052922,130.0,0.003406484378501773,536576.0,1394.7579731941223,1.1058862159352145e-14,0.0,2.4873080253601074,-0.02487308718264103,0.049485135823488235,-0.024873079732060432,-7.450580596923828e-09,0.0,0.01845087669789791,0.314092218875885,0.6226995497023995,0.12859001755714417,0.36174851655960083,0.14704090356826782,0.5113444328308105,2.9637200832366943,0.9987707138061523,,,,,,,
4635340000.0,86.78,0.5400000214576721,12041169408.0,1414.062704199041,131.0,0.003141348483040929,540672.0,1397.6545915603638,1.054017984003508e-14,0.0,2.508425712585449,-0.0250842422246933,0.06004869192838669,-0.025084257125854492,1.4901161193847656e-08,0.0,0.000906083732843399,0.3465918302536011,0.4896764397527279,0.21131856739521027,0.3856479525566101,0.21222464740276337,0.48517173528671265,2.896618366241455,0.9990959167480469,,,,,,,
4635340000.0,87.07,0.5199999809265137,12041169408.0,1398.6947086194689,132.0,0.0032837025355547667,544768.0,1400.583036184311,1.049681175313566e-14,0.0,2.497455596923828,-0.024974558502435684,0.044394101947546005,-0.024974554777145386,-3.725290298461914e-09,0.0,-0.002677823416888714,0.2979978322982788,0.5350181306351002,0.26791733503341675,0.34848713874816895,0.2652394771575928,0.43701377511024475,2.9284446239471436,0.9988143444061279,,,,,,,
4635340000.0,85.85,0.7900000214576721,12041169408.0,1377.5426748009122,133.0,0.005755749065428972,548864.0,1403.5564467906952,1.0533240946131173e-14,0.0,2.5082292556762695,-0.025082290172576904,0.04974088817834854,-0.025082292035222054,1.862645149230957e-09,0.0,-0.0014969217590987682,0.3154422640800476,0.6571414930057061,0.3579416275024414,0.4066449999809265,0.35644471645355225,0.5387191772460938,2.9734106063842773,0.9990172386169434,,,,,,,
4635340000.0,88.41,0.6200000047683716,12041169408.0,1345.7365428845949,134.0,0.0031573602464050055,552960.0,1406.6001331806183,1.1466522176206695e-14,0.0,2.5015430450439453,-0.025015434250235558,0.06550545990467072,-0.02501543052494526,-3.725290298461914e-09,0.0,-0.05281263589859009,0.35812437534332275,0.4828251951531798,0.4257426857948303,0.4213128089904785,0.37293004989624023,0.49798375368118286,3.0436863899230957,0.9987645149230957,,,,,,,
4635340000.0,85.58,0.6100000143051147,12041169408.0,1376.8157042814566,135.0,0.00577622139826417,557056.0,1409.575113773346,1.1117842757535357e-14,0.0,2.4923200607299805,-0.02492319606244564,0.06035490706562996,-0.02492319978773594,3.725290298461914e-09,0.0,-0.01679333671927452,0.34706947207450867,0.4733096703124854,0.45828747749328613,0.42669740319252014,0.4414941370487213,0.47823211550712585,2.974980592727661,0.9990260601043701,,,,,,,
4635340000.0,85.91,0.8899999856948853,12041169408.0,1381.6711628154233,136.0,0.007712358608841896,561152.0,1412.53963971138,1.0961717644697444e-14,0.0,2.4790608882904053,-0.024790603667497635,0.03623639792203903,-0.024790609255433083,4.6566128730773926e-09,0.0,-0.015624918043613434,0.2687867283821106,0.6542246385974426,0.5031481981277466,0.3941122889518738,0.48752325773239136,0.4570995271205902,2.9645259380340576,0.9992959499359131,,,,,,,
4635340000.0,90.57,1.159999966621399,12041169408.0,1357.4582297124427,137.0,0.0066166166216135025,565248.0,1415.5570437908173,1.2510825708744733e-14,0.0,2.467369556427002,-0.02467370219528675,0.05257103592157364,-0.024673694744706154,-7.450580596923828e-09,0.0,-0.019540898501873016,0.32370635867118835,0.6676291222408179,0.44088491797447205,0.42981642484664917,0.42134398221969604,0.5614870190620422,3.017404079437256,0.9986717700958252,,,,,,,
4635340000.0,83.48,1.0700000524520874,12041169408.0,1344.0192163353872,138.0,0.006767657585442066,569344.0,1418.6046192646027,1.3104101137528801e-14,0.0,2.4227099418640137,-0.02422710508108139,0.04099883511662483,-0.024227099493145943,-5.587935447692871e-09,0.0,-0.02907656691968441,0.2849070727825165,0.6648758493778135,0.4403311610221863,0.4079497754573822,0.4112545847892761,0.4921532869338989,3.0475754737854004,0.9988865852355957,,,,,,,
4635340000.0,82.36,0.8199999928474426,12041169408.0,1363.929613074516,139.0,0.0031806384213268757,573440.0,1421.607706785202,1.426116169600533e-14,0.0,2.4148192405700684,-0.024148188531398773,0.06225905567407608,-0.02414819225668907,4.6566128730773926e-09,0.0,-0.059767499566078186,0.34781530499458313,0.6753904358658347,0.3689579665660858,0.4652007818222046,0.30919045209884644,0.6104752421379089,3.0030875205993652,0.9986758232116699,,,,,,,
4635340000.0,86.25,0.8700000047683716,12041169408.0,1408.2523712388083,140.0,0.007753491867333651,577536.0,1424.516276359558,1.631507429156187e-14,0.0,2.382889747619629,-0.0238289013504982,0.05065058916807175,-0.0238288976252079,-2.7939677238464355e-09,0.0,0.02997152879834175,0.31690284609794617,0.5498867667988585,0.351853609085083,0.45110464096069336,0.3818250894546509,0.47235146164894104,2.908569574356079,0.9984245300292969,,,,,,,
4635340000.0,90.0,1.2400000095367432,12041169408.0,1362.5613035512283,141.0,0.00846061110496521,581632.0,1427.5223796367645,1.6703652350180676e-14,0.0,2.3473258018493652,-0.023473253473639488,0.038426194339990616,-0.023473257198929787,3.725290298461914e-09,0.0,0.03977803513407707,0.2743874788284302,0.6996721048436668,0.3368116319179535,0.401080459356308,0.37658965587615967,0.5006871819496155,3.006103277206421,0.9987635612487793,,,,,,,
4635340000.0,87.44,1.2100000381469727,12041169408.0,1401.1203326046855,142.0,0.005556343123316765,585728.0,1430.4457545280457,1.769071000801148e-14,0.0,2.331294536590576,-0.02331293374300003,0.04424551874399185,-0.023312944918870926,1.1175870895385742e-08,0.0,0.002433755435049534,0.29750075936317444,0.6589126636137088,0.31069445610046387,0.3920426666736603,0.31312820315361023,0.5093957185745239,2.923374891281128,1.0005431175231934,,,,,,,
4635340000.0,85.79,0.7799999713897705,12041169408.0,1373.2173563845902,143.0,0.004036799073219299,589824.0,1433.4285306930542,1.7805201757425948e-14,0.0,2.26285982131958,-0.022628601640462875,0.04177357256412506,-0.022628597915172577,-3.725290298461914e-09,0.0,-0.04759056866168976,0.28513526916503906,0.6551319632724041,0.2705235481262207,0.3745284378528595,0.22293296456336975,0.48553937673568726,2.982776165008545,0.9991939067840576,,,,,,,
4635340000.0,85.98,0.7200000286102295,12041169408.0,1410.8343197341173,144.0,0.007671258877962828,593920.0,1436.3317773342133,1.683202188740296e-14,0.0,2.283076763153076,-0.022830769419670105,0.03793065994977951,-0.022830767557024956,-1.3969838619232178e-09,0.0,0.034367337822914124,0.2733101546764374,0.5661072558301461,0.2572126090526581,0.38050177693367004,0.291579931974411,0.41492021083831787,2.9032466411590576,0.9986717700958252,,,,,,,
4635340000.0,83.93,1.1100000143051147,12041169408.0,1417.7381840154,145.0,0.009916262701153755,598016.0,1439.2208862304688,1.5449447277049444e-14,0.0,2.2471959590911865,-0.022471964359283447,0.04689948633313179,-0.022471958771348,-5.587935447692871e-09,0.0,0.05751017481088638,0.3008548617362976,0.5911926396462976,0.3204411268234253,0.40708667039871216,0.37795132398605347,0.4705412685871124,2.889108896255493,0.9993345737457275,,,,,,,
4635340000.0,88.7,1.5299999713897705,12041169408.0,1415.3208398600882,146.0,0.010201302357017994,602112.0,1442.114929676056,1.4679230053715742e-14,0.0,2.2387073040008545,-0.022387070581316948,0.048087235540151596,-0.022387072443962097,2.3283064365386963e-09,0.0,0.054481104016304016,0.30533429980278015,0.6880710607518604,0.39775902032852173,0.42002594470977783,0.45224010944366455,0.5466983318328857,2.894043445587158,0.9990293979644775,,,,,,,
4635340000.0,92.67,1.899999976158142,12041169408.0,1385.3284204063493,147.0,0.009221432730555534,606208.0,1445.0716292858124,1.4606371667724716e-14,0.0,2.214543342590332,-0.02214544080197811,0.08824697881937027,-0.022145433351397514,-7.450580596923828e-09,0.0,0.040262725204229355,0.4182291030883789,0.6822196297639551,0.34982383251190186,0.5047954320907593,0.3900865316390991,0.7419091463088989,2.9566996097564697,0.9989099502563477,,,,,,,
4635340000.0,95.31,1.5,12041169408.0,1308.2942974840198,148.0,0.009226330555975437,610304.0,1448.2024233341217,1.3551659794330817e-14,0.0,2.2247982025146484,-0.022247981280088425,0.038655348122119904,-0.022247981280088425,0.0,0.0,0.018107851967215538,0.27749162912368774,0.6970511950355804,0.39984163641929626,0.4279754161834717,0.41794949769973755,0.5041564106941223,3.130794048309326,0.9987895488739014,,,,,,,
4635340000.0,91.95,1.3899999856948853,12041169408.0,1346.310242082217,149.0,0.007978761568665504,614400.0,1451.2448127269745,1.4464124342694618e-14,0.0,2.1696605682373047,-0.021696604788303375,0.046833425760269165,-0.021696604788303375,0.0,0.0,-0.006095960736274719,0.30602705478668213,0.6642282352482325,0.5228273868560791,0.4451456069946289,0.5167313814163208,0.5281261801719666,3.042389392852783,1.0001671314239502,,,,,,,
4635340000.0,89.57,1.2699999809265137,12041169408.0,1354.4980268566364,150.0,0.007848238572478294,618496.0,1454.268811225891,1.511464564618592e-14,0.0,2.114874839782715,-0.021148744970560074,0.06204943731427193,-0.021148748695850372,3.725290298461914e-09,0.0,-0.02324954979121685,0.3515515923500061,0.6351729185364422,0.6146303415298462,0.43152058124542236,0.5913807153701782,0.5820301175117493,3.023998498916626,0.9992215633392334,,,,,,,
4635340000.0,94.2,1.25,12041169408.0,1359.4766199893647,151.0,0.00995737686753273,622592.0,1457.281735420227,1.5204851266936714e-14,0.0,2.1126670837402344,-0.021126659587025642,0.058561086654663086,-0.021126670762896538,1.1175870895385742e-08,0.0,-0.0071587772108614445,0.34219807386398315,0.6707278500430813,0.6409101486206055,0.5128042697906494,0.6337514519691467,0.5963484048843384,3.0129241943359375,0.998955488204956,,,,,,,
4635340000.0,99.97,1.4600000381469727,12041169408.0,1371.1004293221079,152.0,0.009115738794207573,626688.0,1460.2691168785095,1.6132928326584306e-14,0.0,2.145765781402588,-0.021457672119140625,0.08166378736495972,-0.02145765721797943,-1.5832483768463135e-08,0.0,-0.04735945910215378,0.4014025628566742,0.623626263945259,0.6942514181137085,0.49386927485466003,0.6468919515609741,0.6542903184890747,2.9873814582824707,0.9991488456726074,,,,,,,
4635340000.0,100.66,1.5499999523162842,12041169408.0,1366.5576289615062,153.0,0.008836970664560795,630784.0,1463.2664291858673,1.6105172750968677e-14,0.0,2.061169385910034,-0.020611701533198357,0.09370896220207214,-0.02061169408261776,-7.450580596923828e-09,0.0,-0.011453002691268921,0.4328192472457886,0.5527100039123798,0.6275382041931152,0.4780801832675934,0.6160851716995239,0.647160530090332,2.997312307357788,0.9998722076416016,,,,,,,
4635340000.0,101.05,1.690000057220459,12041169408.0,1385.370312304198,154.0,0.011503876186907291,634880.0,1466.2230393886566,1.6698448179752745e-14,0.0,2.0799083709716797,-0.02079908549785614,0.04616186022758484,-0.02079908363521099,-1.862645149230957e-09,0.0,0.006214164197444916,0.30382171273231506,0.7654116478998036,0.6833488941192627,0.5166134834289551,0.6895630359649658,0.6272859573364258,2.9566102027893066,0.9988138675689697,,,,,,,
4635340000.0,104.35,1.840000033378601,12041169408.0,1378.2112594139044,155.0,0.009964888915419579,638976.0,1469.1950075626373,1.615721445524798e-14,0.0,2.078372001647949,-0.020783714950084686,0.05479144677519798,-0.020783718675374985,3.725290298461914e-09,0.0,0.00984239298850298,0.33092713356018066,0.6954257214230933,0.647510290145874,0.5128276944160461,0.6573526263237,0.5996332764625549,2.971968173980713,0.9990711212158203,,,,,,,
4635340000.0,94.5,1.850000023841858,12041169408.0,1396.2528436474238,156.0,0.013897120952606201,643072.0,1472.1285736560822,1.805326721449063e-14,0.0,2.0420801639556885,-0.02042078599333763,0.05165552720427513,-0.020420800894498825,1.4901161193847656e-08,0.0,0.0416141003370285,0.31875401735305786,0.6652089354938773,0.679193377494812,0.5336018204689026,0.7208074331283569,0.5508947968482971,2.933566093444824,0.9990839958190918,,,,,,,
4635340000.0,99.54,1.9800000190734863,12041169408.0,1395.57027220976,157.0,0.00912297610193491,647168.0,1475.063574552536,1.8067145002298446e-14,0.0,2.1590576171875,-0.021590575575828552,0.062487103044986725,-0.021590575575828552,0.0,0.0,0.02714250609278679,0.35251641273498535,0.7335366939720167,0.8009541034698486,0.5629598498344421,0.8280966281890869,0.6829055547714233,2.9350008964538574,0.9990224838256836,,,,,,,
4635340000.0,103.23,1.9800000190734863,12041169408.0,1372.4300340146353,158.0,0.00997441727668047,651264.0,1478.0480618476868,1.739060284666749e-14,0.0,2.240805149078369,-0.022408053278923035,0.06652599573135376,-0.022408051416277885,-1.862645149230957e-09,0.0,-0.04324101656675339,0.36223509907722473,0.6688160888735153,0.8020939230918884,0.5979741215705872,0.7588529586791992,0.6294423341751099,2.984487295150757,0.9993252754211426,,,,,,,
4635340000.0,104.53,1.840000033378601,12041169408.0,1348.594059107491,159.0,0.012092269957065582,655360.0,1481.0852990150452,2.0795865030009963e-14,0.0,2.1484320163726807,-0.021484315395355225,0.0632486566901207,-0.021484319120645523,3.725290298461914e-09,0.0,0.0036436552181839943,0.3556893765926361,0.6992720500236616,0.8338006734848022,0.5885599851608276,0.8374443054199219,0.6486103534698486,3.0372371673583984,0.9988296031951904,,,,,,,
,,,,,,,,,,,,,,,,,,,,,,,,,,0.023314930498600006,0.08535309880971909,0.072730153799057,0.023314930498600006,0.08535309880971909,0.072730153799057,
,,,,,,,,,,,,,,,,,,,,,,,,,,0.012386709451675415,0.06397385150194168,0.06269735097885132,0.012386709451675415,0.06397385150194168,0.06269735097885132,
,,,,,,,,,,,,,,,,,,,,,,,,,,0.007400830741971731,0.056531477719545364,0.05457034707069397,0.007400830741971731,0.056531477719545364,0.05457034707069397,
,,,,,,,,,,,,,,,,,,,,,,,,,,0.00738650094717741,0.054378386586904526,0.052303675562143326,0.00738650094717741,0.054378386586904526,0.052303675562143326,
,,,,,,,,,,,,,,,,,,,,,,,,,,0.006317750085145235,0.05067838728427887,0.04942579194903374,0.006317750085145235,0.05067838728427887,0.04942579194903374,
,,,,,,,,,,,,,,,,,,,,,,,,,,0.006234046071767807,0.049788862466812134,0.04908078908920288,0.006234046071767807,0.049788862466812134,0.04908078908920288,
,,,,,,,,,,,,,,,,,,,,,,,,,,,,,,,,1.99
4635340000.0,99.93,1.9900000095367432,11990521856.0,16.118836427844172,160.0,0.01083215232938528,659456.0,1735.1979341506958,1.720672215821395e-14,0.0,2.223031997680664,-0.02223031036555767,0.03916718810796738,-0.022230319678783417,9.313225746154785e-09,0.0,0.035027727484703064,0.27771615982055664,0.6678006935274249,0.49544721841812134,0.40212276577949524,0.5304749608039856,0.48183882236480713,254.11263513565063,0.9988844394683838,,,,,,,
4635340000.0,100.08,2.4200000762939453,12041169408.0,1399.014199206481,161.0,0.017771411687135696,663552.0,1738.1257100105286,1.8905016441195244e-14,0.0,2.093862533569336,-0.020938606932759285,0.15767428278923035,-0.020938625559210777,1.862645149230957e-08,0.0,0.17835617065429688,0.5325475335121155,0.5081822245219845,0.5666652917861938,0.5038541555404663,0.7450214624404907,0.7593748569488525,2.9277758598327637,0.9990341663360596,,,,,,,
4635340000.0,102.17,2.619999885559082,12041169408.0,1387.1297107764085,162.0,0.012379235588014126,667648.0,1741.0785701274872,1.959717110810999e-14,0.0,2.1713576316833496,-0.021713564172387123,0.04698497802019119,-0.02171357534825802,1.1175870895385742e-08,0.0,0.061272528022527695,0.3003958463668823,0.7648130665763841,0.5533833503723145,0.4949955642223358,0.6146559119224548,0.619422972202301,2.952860116958618,0.9992475509643555,,,,,,,
4635340000.0,108.87,2.690000057220459,12041169408.0,1398.7831946073973,163.0,0.012795010581612587,671744.0,1744.0068295001984,2.0082893681383496e-14,0.0,2.0761141777038574,-0.020761141553521156,0.07204534113407135,-0.020761141553521156,0.0,0.0,0.04548247158527374,0.37690410017967224,0.6720994193363086,0.6978815197944641,0.49664467573165894,0.7433639764785767,0.6582028865814209,2.9282593727111816,0.9988875389099121,,,,,,,
4635340000.0,110.71,2.3399999141693115,12041169408.0,1375.52087312773,164.0,0.011530077084898949,675840.0,1746.9846105575562,2.2022314527525566e-14,0.0,1.9802567958831787,-0.019802574068307877,0.057962510734796524,-0.01980256661772728,-8.381903171539307e-09,0.0,0.030874017626047134,0.33911633491516113,0.7381754095679056,0.7475185394287109,0.5272608995437622,0.7783925533294678,0.6627405881881714,2.977781057357788,0.9989655017852783,,,,,,,
4635340000.0,109.98,2.299999952316284,12041169408.0,1397.789879175685,165.0,0.008568850345909595,679936.0,1749.9149508476257,1.9649212812389294e-14,0.0,1.9864063262939453,-0.019864071160554886,0.08175233006477356,-0.01986406370997429,-7.450580596923828e-09,0.0,0.013903063721954823,0.4041673243045807,0.7478884593943076,0.8291761875152588,0.6363968849182129,0.8430792093276978,0.8049424290657043,2.93034029006958,0.9987242221832275,,,,,,,
4635340000.0,124.28,2.450000047683716,12041169408.0,1407.4309465946342,166.0,0.01317138597369194,684032.0,1752.825217962265,1.974288788009204e-14,0.0,2.007452964782715,-0.020074522122740746,0.2793324887752533,-0.020074529573321342,7.450580596923828e-09,0.0,0.08252086490392685,0.7429602742195129,0.4470642197993998,0.9754378199577332,0.6041450500488281,1.057958722114563,0.9991443157196045,2.9102671146392822,0.9986939430236816,,,,,,,
4635340000.0,133.09,2.759999990463257,12041169408.0,1405.4502092157004,167.0,0.012554425746202469,688128.0,1755.7395865917206,1.9127061046120275e-14,0.0,1.962648630142212,-0.01962648145854473,0.19155576825141907,-0.01962648518383503,3.725290298461914e-09,0.0,-0.015076685696840286,0.6188518404960632,0.5909553466893747,1.098203182220459,0.7095245122909546,1.0831265449523926,0.9676121473312378,2.9143686294555664,0.9985387325286865,,,,,,,
4635340000.0,129.97,2.859999895095825,12041169408.0,1406.698357523871,168.0,0.01255126390606165,692224.0,1758.6513693332672,1.8655216260654583e-14,0.0,1.9227591753005981,-0.01922759972512722,0.18819919228553772,-0.019227590411901474,-9.313225746154785e-09,0.0,0.02892530895769596,0.612905740737915,0.666663819233726,1.389962077140808,0.7748391032218933,1.4188873767852783,1.0615792274475098,2.911782741546631,0.9990439414978027,,,,,,,
4635340000.0,130.89,3.1500000953674316,12041169408.0,1367.0953700312907,169.0,0.015268363058567047,696320.0,1761.6475026607513,1.8049797767538678e-14,0.0,1.9652304649353027,-0.019652297720313072,0.2838676869869232,-0.01965230330824852,5.587935447692871e-09,0.0,0.03324823081493378,0.7528401613235474,0.5845499082204255,1.6918960809707642,0.9110636711120605,1.7251442670822144,1.168001413345337,2.996133327484131,0.9985733032226562,,,,,,,
4635340000.0,129.6,2.890000104904175,12041169408.0,1384.8265849392433,170.0,0.008143743500113487,700416.0,1764.6052737236023,1.860837872680321e-14,0.0,1.8419468402862549,-0.01841946505010128,0.17033091187477112,-0.01841946877539158,3.725290298461914e-09,0.0,-0.09741455316543579,0.5755459070205688,0.6526326099622018,1.8038694858551025,0.9136905670166016,1.7064549922943115,0.9765298962593079,2.957771062850952,0.9985740184783936,,,,,,,
4635340000.0,134.02,2.630000114440918,12041169408.0,1344.0883005454396,171.0,0.00744227971881628,704512.0,1767.6526925563812,1.7517237660413798e-14,0.0,1.9605435132980347,-0.01960543543100357,0.18853311240673065,-0.01960543543100357,0.0,0.0,-0.184199258685112,0.5858504176139832,0.7336235259562681,1.550565481185913,0.9690361022949219,1.3663662672042847,1.1351120471954346,3.0474188327789307,0.999131441116333,,,,,,,
4635340000.0,140.7,2.299999952316284,12041169408.0,1400.2001522301373,172.0,0.004770566243678331,708608.0,1770.5779886245728,1.823888262642015e-14,0.0,1.8600422143936157,-0.018600430339574814,0.14371976256370544,-0.018600421026349068,-9.313225746154785e-09,0.0,-0.10736344754695892,0.5253379940986633,0.7481219311470928,1.283345341682434,0.8975357413291931,1.1759817600250244,1.0467514991760254,2.9252960681915283,0.9988386631011963,,,,,,,
4635340000.0,131.27,1.4500000476837158,12041169408.0,1388.755375829733,173.0,0.008697981014847755,712704.0,1773.5273921489716,1.8273577095939686e-14,0.0,1.7708768844604492,-0.017708776518702507,0.12923559546470642,-0.01770876906812191,-7.450580596923828e-09,0.0,-0.014671064913272858,0.5082509517669678,0.7633069599150535,1.3519988059997559,0.9368411898612976,1.3373277187347412,1.0446852445602417,2.9494035243988037,1.0001704692840576,,,,,,,
4635340000.0,143.18,2.0399999618530273,12041169408.0,1358.1685474703681,174.0,0.010718128643929958,716800.0,1776.5432181358337,1.786418235560916e-14,0.0,1.8510117530822754,-0.018510110676288605,0.12790590524673462,-0.018510116264224052,6.51925802230835e-09,0.0,0.03326672315597534,0.504744827747345,0.6324763246621132,0.7324033975601196,0.654487133026123,0.7656701803207397,0.8325862288475037,3.0158259868621826,0.9989533424377441,,,,,,,
4635340000.0,152.03,2.440000057220459,12041169408.0,1378.5732287546246,175.0,0.010860847309231758,720896.0,1779.514405965805,1.6237011735142914e-14,0.0,2.0336806774139404,-0.020336801186203957,0.16331669688224792,-0.020336806774139404,5.587935447692871e-09,0.0,0.10004016757011414,0.5627634525299072,0.6177866828672058,0.8605154752731323,0.7078209519386292,0.9605556130409241,0.9102756381034851,2.9711878299713135,0.9987311363220215,,,,,,,
4635340000.0,153.05,2.9700000286102295,12041169408.0,1421.9116418370972,176.0,0.012964102439582348,724992.0,1782.3950350284576,1.454392162258955e-14,0.0,2.0883898735046387,-0.020883895456790924,0.16148501634597778,-0.020883899182081223,2.7939677238464355e-09,0.0,0.11327196657657623,0.5569696426391602,0.5851519738298108,0.5689644813537598,0.5992808938026428,0.6822364330291748,0.8647430539131165,2.880629062652588,0.9988489151000977,,,,,,,
4635340000.0,142.74,2.75,12041169408.0,1351.511153906668,177.0,0.011369412764906883,729088.0,1785.425716638565,1.4179629692634421e-14,0.0,2.167003631591797,-0.021670036017894745,0.05466601252555847,-0.021670036017894745,9.313225746154785e-10,0.0,0.049413733184337616,0.32698073983192444,0.777891774964733,0.644659698009491,0.637312114238739,0.6940733790397644,0.693808913230896,3.030681610107422,0.9989173412322998,,,,,,,
4635340000.0,140.43,2.759999990463257,12041169408.0,1379.3802427888295,178.0,0.010384978726506233,733184.0,1788.3951661586761,1.4731271757995046e-14,0.0,2.139352321624756,-0.02139352448284626,0.08747058361768723,-0.02139352262020111,-1.862645149230957e-09,0.0,0.07062510401010513,0.41230422258377075,0.7919160698531332,0.9392959475517273,0.7735459208488464,1.0099210739135742,0.903854489326477,2.969449520111084,0.9986271858215332,,,,,,,
4635340000.0,145.81,3.569999933242798,12041169408.0,1370.5143779061827,179.0,0.019243605434894562,737280.0,1791.3838250637054,1.4540452175637597e-14,0.0,2.17581844329834,-0.02175818756222725,0.2481820285320282,-0.02175818383693695,-3.725290298461914e-09,0.0,0.19429388642311096,0.677293062210083,0.6493202654534405,0.9178816676139832,0.7474971413612366,1.112175703048706,1.1437244415283203,2.988658905029297,0.9988093376159668,,,,,,,
4635340000.0,141.81,3.4600000381469727,12041169408.0,1394.4465850652173,180.0,0.01024325005710125,741376.0,1794.321191072464,1.4339224252424287e-14,0.0,2.1885781288146973,-0.02188577689230442,0.0797913521528244,-0.02188578061759472,3.725290298461914e-09,0.0,0.03670540824532509,0.39783674478530884,0.7399756143198577,1.201493501663208,0.7206961512565613,1.2381987571716309,0.780185341835022,2.937366008758545,0.9990038871765137,,,,,,,
4635340000.0,160.3,4.090000152587891,12041169408.0,1405.0237738702517,181.0,0.015406704507768154,745472.0,1797.236444234848,1.5248219353836134e-14,0.0,2.142117977142334,-0.021421175450086594,0.22500446438789368,-0.021421179175376892,3.259629011154175e-09,0.0,0.047507353127002716,0.6692244410514832,0.6916206514125585,1.3380441665649414,0.8915719389915466,1.3855515718460083,1.2051167488098145,2.915253162384033,0.9991350173950195,,,,,,,
4635340000.0,161.04,4.400000095367432,12041169408.0,1353.3127176601092,182.0,0.016743313521146774,749568.0,1800.26309132576,1.6936105295961568e-14,0.0,1.990767478942871,-0.01990767940878868,0.15334895253181458,-0.019907673820853233,-5.587935447692871e-09,0.0,0.07454295456409454,0.5488303899765015,0.7657273742547219,1.532820463180542,0.9614543914794922,1.6073634624481201,1.1339067220687866,3.0266470909118652,0.9991209506988525,,,,,,,
4635340000.0,151.21,3.7699999809265137,12041169408.0,1328.6710275972023,183.0,0.013458233326673508,753664.0,1803.3458709716797,1.7126924878319016e-14,0.0,2.1086583137512207,-0.02108658477663994,0.16521123051643372,-0.02108658291399479,-1.862645149230957e-09,0.0,-0.04444073513150215,0.5731733441352844,0.7069950927193875,1.86334228515625,0.9662879705429077,1.8189016580581665,1.0588843822479248,3.0827796459198,0.9988429546356201,,,,,,,
4635340000.0,160.5,4.679999828338623,12041169408.0,1353.4263678454959,184.0,0.019232461228966713,757760.0,1806.3722639083862,1.6563139748626554e-14,0.0,2.1615872383117676,-0.021615874022245407,0.2675841152667999,-0.021615872159600258,-1.862645149230957e-09,0.0,0.01937568560242653,0.7313845753669739,0.7553301142475075,2.4124886989593506,1.1996523141860962,2.4318645000457764,1.4786165952682495,3.026392936706543,0.9988718032836914,,,,,,,
4635340000.0,153.68,4.400000095367432,12041169408.0,1389.8549511087697,185.0,0.017005901783704758,761856.0,1809.3193340301514,1.6398341018408757e-14,0.0,2.202052116394043,-0.02202051319181919,0.2298586070537567,-0.022020520642399788,7.450580596923828e-09,0.0,-0.04186183214187622,0.6768136024475098,0.8199463728784977,2.6194663047790527,1.3999849557876587,2.5776045322418213,1.5950274467468262,2.9470701217651367,0.9989619255065918,,,,,,,
4635340000.0,151.14,4.440000057220459,12041169408.0,1390.978342431842,186.0,0.017133168876171112,765952.0,1812.2640240192413,1.741315425185519e-14,0.0,2.2163829803466797,-0.022163843736052513,0.2695484459400177,-0.02216382883489132,-1.4901161193847656e-08,0.0,-0.10472297668457031,0.7268142104148865,0.7923081160207647,2.775188684463501,1.4085190296173096,2.6704657077789307,1.5948275327682495,2.944689989089966,0.9988174438476562,,,,,,,
4635340000.0,155.47,4.380000114440918,12041169408.0,1370.7451072883503,187.0,0.014399544335901737,770048.0,1815.2521798610687,1.580506558962469e-14,0.0,2.2384190559387207,-0.022384168580174446,0.3854990005493164,-0.022384190931916237,2.2351741790771484e-08,0.0,-0.1768411099910736,0.8601778149604797,0.6188703172846095,2.6799893379211426,1.301498293876648,2.503148317337036,1.393323302268982,2.9881558418273926,0.9984450340270996,,,,,,,
4635340000.0,144.01,3.7699999809265137,12041169408.0,1356.6129132212807,188.0,0.01209138985723257,774144.0,1818.2714641094208,1.7767037840954458e-14,0.0,2.2076468467712402,-0.022076468914747238,0.17095407843589783,-0.02207646705210209,-9.313225746154785e-10,0.0,0.023253951221704483,0.5843379497528076,0.852284105228881,2.0716452598571777,1.301553726196289,2.0948996543884277,1.5203741788864136,3.019284248352051,0.999032735824585,,,,,,,
4635340000.0,150.8,4.570000171661377,12041169408.0,1363.5091678832255,189.0,0.023027919232845306,778240.0,1821.2754776477814,1.9697785069716645e-14,0.0,2.15718936920166,-0.021571889519691467,0.25892770290374756,-0.021571893244981766,3.725290298461914e-09,0.0,0.07840169966220856,0.715425431728363,0.8044149510245779,1.9275579452514648,1.2609714269638062,2.0059597492218018,1.6176947355270386,3.0040135383605957,1.0026605129241943,,,,,,,
4635340000.0,145.19,4.570000171661377,12041169408.0,1354.783220337927,190.0,0.01918475329875946,782336.0,1824.2988395690918,2.0310142456736457e-14,0.0,2.1515564918518066,-0.02151557244360447,0.19982962310314178,-0.021515564993023872,-7.450580596923828e-09,0.0,0.045291319489479065,0.630638599395752,0.8029798718734726,1.8170526027679443,1.216755986213684,1.8623440265655518,1.4207748174667358,3.023361921310425,0.9988505840301514,,,,,,,
4635340000.0,143.53,4.769999980926514,12041169408.0,1383.6223915942126,191.0,0.017638232558965683,786432.0,1827.2591848373413,2.0951990142847876e-14,0.0,2.1034440994262695,-0.021034443750977516,0.17629322409629822,-0.021034440025687218,-3.725290298461914e-09,0.0,-0.014300646260380745,0.5936901569366455,0.8039125976556939,1.7894070148468018,1.1620069742202759,1.7751061916351318,1.3407104015350342,2.9603452682495117,0.998687744140625,,,,,,,
,,,,,,,,,,,,,,,,,,,,,,,,,,0.10011900216341019,0.47879740595817566,0.4131828844547272,0.10011900216341019,0.47879740595817566,0.4131828844547272,
,,,,,,,,,,,,,,,,,,,,,,,,,,0.04328829422593117,0.3323054313659668,0.3260417878627777,0.04328829422593117,0.3323054313659668,0.3260417878627777,
,,,,,,,,,,,,,,,,,,,,,,,,,,0.03266749158501625,0.2988904118537903,0.2932075560092926,0.03266749158501625,0.2988904118537903,0.2932075560092926,
,,,,,,,,,,,,,,,,,,,,,,,,,,0.029868312180042267,0.30239051580429077,0.29604068398475647,0.029868312180042267,0.30239051580429077,0.29604068398475647,
,,,,,,,,,,,,,,,,,,,,,,,,,,0.02257801778614521,0.2577575147151947,0.25747379660606384,0.02257801778614521,0.2577575147151947,0.25747379660606384,
,,,,,,,,,,,,,,,,,,,,,,,,,,0.019092608243227005,0.2526887059211731,0.2516225576400757,0.019092608243227005,0.2526887059211731,0.2516225576400757,
,,,,,,,,,,,,,,,,,,,,,,,,,,,,,,,,2.45
4635340000.0,135.8,4.550000190734863,11990521856.0,16.123720142516678,192.0,0.016309542581439018,790528.0,2081.2948517799377,1.878705524482882e-14,0.0,2.053678035736084,-0.02053677663207054,0.2410687506198883,-0.02053678035736084,4.6566128730773926e-09,0.0,0.07737484574317932,0.6901209354400635,0.7994761250504879,1.7185969352722168,1.2962466478347778,1.7959717512130737,1.5411401987075806,254.03566694259644,0.998619794845581,,,,,,,
4635340000.0,131.76,4.21999979019165,12041169408.0,1416.207654223756,193.0,0.016658980399370193,794624.0,2084.187083005905,2.058596348941677e-14,0.0,1.9921562671661377,-0.019921550527215004,0.1879955679178238,-0.0199215617030859,1.1175870895385742e-08,0.0,0.027419552206993103,0.6126425862312317,0.8646993567426353,1.7282017469406128,1.3239043951034546,1.755621314048767,1.66554856300354,2.8922312259674072,1.0004453659057617,,,,,,,
4635340000.0,135.46,4.199999809265137,12041169408.0,1401.6747598634638,194.0,0.014700387604534626,798720.0,2087.1093015670776,2.1782922687840767e-14,0.0,1.9967443943023682,-0.019967447966337204,0.14385193586349487,-0.019967444241046906,-3.725290298461914e-09,0.0,-0.008300120010972023,0.5363816022872925,0.8252123882288649,1.5483039617538452,1.0913406610488892,1.5400038957595825,1.2829761505126953,2.9222185611724854,0.9988067150115967,,,,,,,
4635340000.0,144.87,3.950000047683716,12041169408.0,1367.7175894836844,195.0,0.012116670608520508,802816.0,2090.104071855545,2.1789861581744674e-14,0.0,1.9562466144561768,-0.019562460482120514,0.18294617533683777,-0.01956246607005596,6.51925802230835e-09,0.0,-0.007344983983784914,0.6049196720123291,0.6456189721931853,1.5693594217300415,1.0195637941360474,1.5620143413543701,1.0161607265472412,2.9947702884674072,0.9990870952606201,,,,,,,
4635340000.0,146.43,3.5,12041169408.0,1395.9442541099415,196.0,0.012249590829014778,806912.0,2093.038286447525,2.191649639549098e-14,0.0,1.9042229652404785,-0.019042225554585457,0.13043861091136932,-0.019042229279875755,3.725290298461914e-09,0.0,0.01852087303996086,0.5104878544807434,0.7770606662705128,1.8536584377288818,1.036237359046936,1.8721792697906494,1.081165075302124,2.9342145919799805,0.9988126754760742,,,,,,,
4635340000.0,153.72,3.859999895095825,12041169408.0,1340.202888915915,197.0,0.014902926981449127,811008.0,2096.094540119171,2.168924762013802e-14,0.0,1.949525237083435,-0.019495243206620216,0.25512805581092834,-0.019495252519845963,9.313225746154785e-09,0.0,0.09449708461761475,0.7081304788589478,0.8545229585675498,1.6690673828125,1.5814471244812012,1.7635644674301147,1.8565902709960938,3.056253671646118,0.9990684986114502,,,,,,,
4635340000.0,164.21,4.460000038146973,12041169408.0,1410.6289304953693,198.0,0.02060438133776188,815104.0,2098.998209476471,2.217843964036348e-14,0.0,1.941573977470398,-0.019415736198425293,0.20085197687149048,-0.01941573992371559,3.725290298461914e-09,0.0,0.07873354852199554,0.6289686560630798,0.855129754363573,2.041985034942627,1.5116732120513916,2.120718479156494,1.6524920463562012,2.9036693572998047,0.9989273548126221,,,,,,,
4635340000.0,164.42,4.849999904632568,12041169408.0,1365.9942433797278,199.0,0.018912920728325844,819200.0,2101.9967579841614,2.2429974544380116e-14,0.0,1.921133041381836,-0.019211329519748688,0.18444550037384033,-0.019211329519748688,0.0,0.0,0.08610441535711288,0.601302981376648,0.8966595333781481,2.070404052734375,1.7595609426498413,2.156508684158325,1.87050199508667,2.9985485076904297,0.9992685317993164,,,,,,,
4635340000.0,169.82,5.699999809265137,12041169408.0,1395.6507668501336,200.0,0.019625447690486908,823296.0,2104.931589603424,2.232415641234553e-14,0.0,1.9604158401489258,-0.01960415579378605,0.33408546447753906,-0.019604157656431198,1.862645149230957e-09,0.0,0.10451201349496841,0.810807466506958,0.8459380482756169,2.1765267848968506,1.9071660041809082,2.281038761138916,2.0657129287719727,2.9348316192626953,0.9993033409118652,,,,,,,
4635340000.0,168.13,6.0,12041169408.0,1373.9877806929253,201.0,0.018476251512765884,827392.0,2107.9126932621,2.0990154059319366e-14,0.0,1.8831675052642822,-0.018831655383110046,0.4131616950035095,-0.01883167400956154,1.862645149230957e-08,0.0,0.2962670922279358,0.8594938516616821,0.8805315582810213,2.834287643432617,2.1727325916290283,3.130554676055908,2.4866583347320557,2.9811036586761475,0.9988789558410645,,,,,,,
4635340000.0,187.37,7.289999961853027,12041169408.0,1413.553330202319,202.0,0.02807452529668808,831488.0,2110.810355424881,2.2521914888606887e-14,0.0,1.9008538722991943,-0.019008545204997063,0.4628336727619171,-0.019008537754416466,-7.450580596923828e-09,0.0,0.04305891692638397,0.9612694978713989,0.820917740436325,2.7625410556793213,2.2602648735046387,2.8055996894836426,2.271531820297241,2.8976621627807617,0.9991724491119385,,,,,,,
4635340000.0,195.7,7.639999866485596,12041169408.0,1416.155238173901,203.0,0.01792972721159458,835584.0,2113.7026937007904,2.2206195215979108e-14,0.0,1.9192824363708496,-0.019192827865481377,0.40267735719680786,-0.019192824140191078,-3.725290298461914e-09,0.0,0.06346166878938675,0.8952782154083252,0.7907438523995509,3.5302541255950928,1.9084360599517822,3.5937156677246094,1.9571259021759033,2.892338275909424,0.999140739440918,,,,,,,
4635340000.0,208.32,8.029999732971191,12041169408.0,1438.2438811382003,204.0,0.02031838148832321,839680.0,2116.550611257553,2.5115326485192213e-14,0.0,1.8887680768966675,-0.018887674435973167,0.5774748921394348,-0.018887680023908615,5.587935447692871e-09,0.0,-0.20415331423282623,1.0552456378936768,0.820755693354789,4.190672397613525,2.323258638381958,3.9865188598632812,2.4924747943878174,2.8479175567626953,0.9995625019073486,,,,,,,
4635340000.0,206.56,7.389999866485596,12041169408.0,1395.6830806908374,205.0,0.01174874696880579,843776.0,2119.4853749275208,2.4570623313735496e-14,0.0,1.9221611022949219,-0.019221603870391846,0.34497952461242676,-0.019221611320972443,7.450580596923828e-09,0.0,-0.11156992614269257,0.8232111930847168,0.838029381390799,3.8662772178649902,1.971651315689087,3.7547073364257812,2.0454704761505127,2.9347636699676514,0.9988503456115723,,,,,,,
4635340000.0,202.36,7.03000020980835,12041169408.0,1398.1837132982118,206.0,0.02285097911953926,847872.0,2122.4148898124695,2.2934779075889367e-14,0.0,1.8733536005020142,-0.018733534961938858,0.3819817304611206,-0.018733534961938858,0.0,0.0,0.0012586824595928192,0.8741558194160461,0.8635803466970168,3.5036544799804688,2.186699867248535,3.504913091659546,2.36673903465271,2.9295148849487305,0.9989068508148193,,,,,,,
4635340000.0,188.87,6.130000114440918,12041169408.0,1386.7557348396294,207.0,0.01681520603597164,851968.0,2125.3685462474823,2.3755303280026396e-14,0.0,1.9169657230377197,-0.019169660285115242,0.44295769929885864,-0.019169656559824944,-3.725290298461914e-09,0.0,-0.08049082010984421,0.9378973245620728,0.8460915954742185,3.646585464477539,2.1923563480377197,3.5660946369171143,2.3906943798065186,2.9536564350128174,0.9990448951721191,,,,,,,
4635340000.0,176.17,6.070000171661377,12041169408.0,1403.9188907877622,208.0,0.022515106946229935,856064.0,2128.286093711853,2.2844573455138573e-14,0.0,1.94313645362854,-0.019431374967098236,0.4001311659812927,-0.01943136379122734,-1.1175870895385742e-08,0.0,-0.09556624293327332,0.8895632028579712,0.8541734266696287,3.5136098861694336,2.176971673965454,3.418043613433838,2.329477071762085,2.9175474643707275,0.9989361763000488,,,,,,,
4635340000.0,176.24,6.210000038146973,12041169408.0,1389.5557014681035,209.0,0.01758440025150776,860160.0,2131.2337985038757,2.5460536456911598e-14,0.0,1.8571605682373047,-0.018571607768535614,0.3412947952747345,-0.018571605905890465,-9.313225746154785e-10,0.0,-0.10287339240312576,0.8198602199554443,0.8608322181708912,3.75114107131958,2.0325467586517334,3.6482675075531006,2.1977105140686035,2.947704792022705,0.9986715316772461,,,,,,,
4635340000.0,172.51,5.869999885559082,12041169408.0,1406.5337826525251,210.0,0.01582777127623558,864256.0,2134.145921945572,2.689341804806844e-14,0.0,1.7799192667007446,-0.01779918558895588,0.26969945430755615,-0.017799193039536476,7.450580596923828e-09,0.0,0.03234207630157471,0.7338149547576904,0.868214269045742,3.4492087364196777,1.9125698804855347,3.481551170349121,2.0214009284973145,2.912123441696167,0.998650312423706,,,,,,,
4635340000.0,179.78,6.420000076293945,12041169408.0,1407.2064906951653,211.0,0.021569672971963882,868352.0,2137.0566532611847,2.5391147517872525e-14,0.0,1.8044167757034302,-0.01804416999220848,0.2885345220565796,-0.01804416812956333,-1.862645149230957e-09,0.0,-0.0003049364313483238,0.7597432732582092,0.8600594529441206,3.3355963230133057,1.9127850532531738,3.3352913856506348,2.030930995941162,2.910731315612793,0.9989690780639648,,,,,,,
4635340000.0,185.55,6.909999847412109,12041169408.0,1403.4664401497064,212.0,0.025025900453329086,872448.0,2139.97514128685,2.5304411344073685e-14,0.0,1.7657585144042969,-0.017657577991485596,0.37884917855262756,-0.017657585442066193,7.450580596923828e-09,0.0,0.15114441514015198,0.8573407530784607,0.8229054321572344,2.9769232273101807,1.8266551494598389,3.1280674934387207,2.037280321121216,2.918488025665283,0.999213695526123,,,,,,,
4635340000.0,203.37,8.079999923706055,12041169408.0,1374.9062794960857,213.0,0.021894946694374084,876544.0,2142.954253435135,2.643198160345861e-14,0.0,1.7693517208099365,-0.017693519592285156,0.36040550470352173,-0.017693517729640007,-1.862645149230957e-09,0.0,0.18985813856124878,0.827606201171875,0.8153210998865992,3.1693968772888184,1.7879444360733032,3.359255075454712,1.925817608833313,2.979112148284912,0.9985401630401611,,,,,,,
4635340000.0,222.03,8.930000305175781,12041169408.0,1398.5848284791161,214.0,0.019549567252397537,880640.0,2145.882928133011,2.4428375988705398e-14,0.0,1.7938494682312012,-0.01793850213289261,0.2891623377799988,-0.01793849468231201,-6.51925802230835e-09,0.0,0.09219517558813095,0.7549595236778259,0.7987031686853749,2.8177483081817627,1.5661284923553467,2.9099435806274414,1.682694435119629,2.9286746978759766,0.998896598815918,,,,,,,
4635340000.0,233.98,9.729999542236328,12041169408.0,1372.1088702402415,215.0,0.02511918917298317,884736.0,2148.8681139945984,2.5191654318135193e-14,0.0,1.7762982845306396,-0.017762966454029083,0.406075119972229,-0.017762983217835426,1.6763806343078613e-08,0.0,0.194316565990448,0.8801025152206421,0.8407698505967548,3.3400588035583496,1.9872599840164185,3.5343751907348633,2.205568790435791,2.9851858615875244,0.9989421367645264,,,,,,,
4635340000.0,241.3,10.369999885559082,12041169408.0,1398.0646978489008,216.0,0.02146943286061287,888832.0,2151.797878265381,2.5561150418518253e-14,0.0,1.7633029222488403,-0.017633020877838135,0.32699909806251526,-0.01763302832841873,7.450580596923828e-09,0.0,0.16023683547973633,0.7927646636962891,0.8898672238496934,4.378572940826416,2.188629150390625,4.538809299468994,2.388833522796631,2.9297642707824707,0.9988546371459961,,,,,,,
4635340000.0,249.35,10.989999771118164,12041169408.0,1370.2727967512642,217.0,0.026413656771183014,892928.0,2154.78706407547,2.5248900192842427e-14,0.0,1.7597544193267822,-0.017597533762454987,0.35220199823379517,-0.017597543075680733,1.0244548320770264e-08,0.0,0.06235639005899429,0.8370702862739563,0.8907563467417122,3.8590660095214844,2.3892669677734375,3.9214227199554443,2.5325839519500732,2.9891858100891113,0.9989573955535889,,,,,,,
4635340000.0,258.32,11.600000381469727,12041169408.0,1408.3007405685348,218.0,0.015441298484802246,897024.0,2157.6955337524414,2.455154135549975e-14,0.0,1.7651666402816772,-0.017651664093136787,0.40835362672805786,-0.017651665955781937,1.862645149230957e-09,0.0,0.06679853796958923,0.9013565182685852,0.7926250755650218,4.342598915100098,1.8942744731903076,4.409397602081299,1.9793317317962646,2.9084696769714355,0.9990551471710205,,,,,,,
4635340000.0,271.31,11.829999923706055,12041169408.0,1385.7339286711017,219.0,0.030978890135884285,901120.0,2160.6513681411743,2.4787463748232597e-14,0.0,1.8301129341125488,-0.01830112561583519,0.638887345790863,-0.01830112934112549,3.725290298461914e-09,0.0,-0.0008569322526454926,1.1305246353149414,0.8041055643909738,5.378100395202637,2.4985556602478027,5.377243518829346,2.5542819499969482,2.95583438873291,0.9990527629852295,,,,,,,
4635340000.0,269.64,11.8100004196167,12041169408.0,1375.420439848075,220.0,0.021036673337221146,905216.0,2163.6293666362762,2.834364687398505e-14,0.0,1.8227386474609375,-0.01822737604379654,0.49362677335739136,-0.018227385357022285,9.313225746154785e-09,0.0,0.015896789729595184,0.9936004877090454,0.8300960188216792,5.505992889404297,2.3693859577178955,5.521889686584473,2.410515785217285,2.9779984951019287,0.9995756149291992,,,,,,,
4635340000.0,270.91,11.899999618530273,12041169408.0,1387.6090082195055,221.0,0.023752406239509583,909312.0,2166.5812067985535,2.2679774724920776e-14,0.0,1.9314731359481812,-0.01931474171578884,0.605652928352356,-0.019314730539917946,-1.1175870895385742e-08,0.0,-0.13405483961105347,1.0925321578979492,0.7981641171220066,5.474440574645996,2.2918295860290527,5.340385913848877,2.431840658187866,2.9518401622772217,0.9989778995513916,,,,,,,
4635340000.0,268.26,11.640000343322754,12041169408.0,1380.292327251645,222.0,0.01667202264070511,913408.0,2169.5486941337585,2.1914761672015004e-14,0.0,1.9427828788757324,-0.019427821040153503,0.4955611526966095,-0.0194278284907341,7.450580596923828e-09,0.0,-0.06615414470434189,0.993472158908844,0.8129579051869825,6.22664213180542,2.1029622554779053,6.160488128662109,2.297132968902588,2.967487335205078,0.9993188381195068,,,,,,,
4635340000.0,279.5,11.920000076293945,12041169408.0,1395.5700454774087,223.0,0.030027613043785095,917504.0,2172.4836955070496,2.241089258614437e-14,0.0,1.9721894264221191,-0.019721893593668938,0.6081877946853638,-0.019721893593668938,0.0,0.0,-0.025784164667129517,1.1027272939682007,0.8273914748006556,6.11611270904541,2.5948972702026367,6.090328216552734,2.6542201042175293,2.9350013732910156,0.9992339611053467,,,,,,,
,,,,,,,,,,,,,,,,,,,,,,,,,,0.1340128779411316,1.557162880897522,1.5637083053588867,0.1340128779411316,1.557162880897522,1.5637083053588867,
,,,,,,,,,,,,,,,,,,,,,,,,,,0.059161219745874405,1.2859467267990112,1.2452137470245361,0.059161219745874405,1.2859467267990112,1.2452137470245361,
,,,,,,,,,,,,,,,,,,,,,,,,,,0.06115065887570381,1.2090378999710083,1.1798930168151855,0.06115065887570381,1.2090378999710083,1.1798930168151855,
,,,,,,,,,,,,,,,,,,,,,,,,,,0.03873738273978233,1.0819061994552612,1.057907223701477,0.03873738273978233,1.0819061994552612,1.057907223701477,
,,,,,,,,,,,,,,,,,,,,,,,,,,0.03637054190039635,1.0276432037353516,1.0135931968688965,0.03637054190039635,1.0276432037353516,1.0135931968688965,
,,,,,,,,,,,,,,,,,,,,,,,,,,0.031397636979818344,0.9593567848205566,0.9725243449211121,0.031397636979818344,0.9593567848205566,0.9725243449211121,
,,,,,,,,,,,,,,,,,,,,,,,,,,,,,,,,6.04
4635340000.0,274.17,11.529999732971191,11990521856.0,16.139174918043157,224.0,0.018160641193389893,921600.0,2426.2760994434357,2.1812412986932372e-14,0.0,2.079336404800415,-0.02079336903989315,0.29444220662117004,-0.020793363451957703,-5.587935447692871e-09,0.0,0.018037840723991394,0.7672697305679321,0.9002651684774221,4.454184532165527,2.2176709175109863,4.472222328186035,2.4295427799224854,253.7924039363861,0.9987545013427734,,,,,,,
4635340000.0,263.71,10.890000343322754,12041169408.0,1390.631892725936,225.0,0.023724131286144257,925696.0,2429.2215230464935,2.2402218968764487e-14,0.0,2.074540138244629,-0.020745396614074707,0.33898353576660156,-0.020745400339365005,3.725290298461914e-09,0.0,0.04314323142170906,0.8223568797111511,0.8819620449914837,4.23622465133667,2.2060906887054443,4.2793684005737305,2.3935890197753906,2.9454236030578613,0.9988627433776855,,,,,,,
4635340000.0,245.55,10.039999961853027,12041169408.0,1388.9382742399466,226.0,0.01911633461713791,929792.0,2432.170538187027,1.9992688060632702e-14,0.0,2.1489787101745605,-0.02148979716002941,0.3227904140949249,-0.021489785984158516,-1.1641532182693481e-08,0.0,-0.08575581014156342,0.7989885210990906,0.835565076455536,3.1948580741882324,1.808518648147583,3.109102249145508,1.970350742340088,2.9490151405334473,0.9989299774169922,,,,,,,
4635340000.0,230.35,8.829999923706055,12041169408.0,1385.372658325391,227.0,0.010942026972770691,933888.0,2435.127143383026,1.8889403929911452e-14,0.0,2.1801135540008545,-0.02180113084614277,0.3403771221637726,-0.021801134571433067,3.725290298461914e-09,0.0,-0.12101656198501587,0.8162547945976257,0.8267366156964697,3.424593210220337,1.865929365158081,3.3035764694213867,1.9609761238098145,2.9566051959991455,0.99875807762146,,,,,,,
4635340000.0,226.27,7.760000228881836,12041169408.0,1414.6546811510402,228.0,0.014866811223328114,937984.0,2438.0225496292114,2.018871181341808e-14,0.0,2.144716739654541,-0.021447155624628067,0.34430012106895447,-0.021447166800498962,1.1175870895385742e-08,0.0,-0.07488346099853516,0.826534628868103,0.8204344206546774,2.986325740814209,1.7887945175170898,2.911442279815674,1.9505159854888916,2.8954062461853027,0.9983410835266113,,,,,,,
4635340000.0,215.99,7.019999980926514,12041169408.0,1382.1224545684122,229.0,0.012288089841604233,942080.0,2440.9861075878143,1.9058105787950197e-14,0.0,2.2101073265075684,-0.022101078182458878,0.2953197956085205,-0.02210107259452343,-5.587935447692871e-09,0.0,-0.014280302450060844,0.7684919238090515,0.8529409669265646,2.9649553298950195,1.797223448753357,2.9506747722625732,2.0039803981781006,2.9635579586029053,0.9985959529876709,,,,,,,
4635340000.0,215.86,5.820000171661377,12041169408.0,1394.3398609983533,230.0,0.016542719677090645,946176.0,2443.923698425293,2.0790660859582033e-14,0.0,2.1080141067504883,-0.021080125123262405,0.26539909839630127,-0.0210801400244236,1.4901161193847656e-08,0.0,0.005455471575260162,0.7286275625228882,0.8769513712897342,3.6782965660095215,1.9921506643295288,3.6837520599365234,2.077146530151367,2.9375908374786377,1.0017547607421875,,,,,,,
4635340000.0,225.4,6.579999923706055,12041169408.0,1409.597097816035,231.0,0.02399381995201111,950272.0,2446.8294932842255,2.087392758642892e-14,0.0,2.145690441131592,-0.021456902846693993,0.2748039960861206,-0.021456904709339142,1.862645149230957e-09,0.0,0.11656321585178375,0.7322239279747009,0.9130756840534276,3.534406900405884,2.258549451828003,3.650970220565796,2.4835522174835205,2.905794858932495,0.9994800090789795,,,,,,,
4635340000.0,229.53,6.820000171661377,12041169408.0,1325.552981552452,232.0,0.016149483621120453,954368.0,2449.9195244312286,1.997707554934891e-14,0.0,2.1614954471588135,-0.021614953875541687,0.2510576844215393,-0.021614953875541687,-9.313225746154785e-10,0.0,0.002994331531226635,0.7086811661720276,0.8691815579783025,2.898289918899536,1.9439479112625122,2.9012844562530518,1.9593697786331177,3.090031147003174,0.9989984035491943,,,,,,,
4635340000.0,230.26,7.070000171661377,12041169408.0,1386.994429132401,233.0,0.01689297705888748,958464.0,2452.872672557831,2.0245957688125316e-14,0.0,2.2145886421203613,-0.02214588038623333,0.23397670686244965,-0.022145885974168777,5.587935447692871e-09,0.0,0.06445357948541641,0.6811111569404602,0.8924166412201984,3.026174783706665,1.8924592733383179,3.0906286239624023,2.0765652656555176,2.953148126602173,0.9991986751556396,,,,,,,
4635340000.0,230.71,7.75,12041169408.0,1394.5200451607147,234.0,0.0179903507232666,962560.0,2455.8098838329315,1.8990017891518107e-14,0.0,2.1685070991516113,-0.021685071289539337,0.23979192972183228,-0.021685071289539337,-9.313225746154785e-10,0.0,0.033098865300416946,0.6918129920959473,0.8596580387414439,2.735567569732666,1.666170597076416,2.7686662673950195,1.8466938734054565,2.937211275100708,0.9990220069885254,,,,,,,
4635340000.0,235.34,8.170000076293945,12041169408.0,1392.119231139173,235.0,0.020733287557959557,966656.0,2458.752160549164,1.9557272468162523e-14,0.0,2.180050849914551,-0.021800508722662926,0.2586010694503784,-0.021800508722662926,0.0,0.0,0.10814467817544937,0.7110769152641296,0.898848599320961,3.269634962081909,2.036179780960083,3.377779483795166,2.235787868499756,2.9422767162323,0.9990139007568359,,,,,,,
4635340000.0,232.82,8.010000228881836,12041169408.0,1372.324132008362,236.0,0.011789657175540924,970752.0,2461.736878156662,2.0441981440910695e-14,0.0,2.137369155883789,-0.021373694762587547,0.21098749339580536,-0.02137369103729725,-3.725290298461914e-09,0.0,-0.029170360416173935,0.6490199565887451,0.8780244726150048,2.912431240081787,1.8453943729400635,2.883261203765869,1.8583253622055054,2.984717607498169,0.9991388320922852,,,,,,,
4635340000.0,234.59,7.380000114440918,12041169408.0,1361.9519714048158,237.0,0.01963150128722191,974848.0,2464.744326353073,1.9772378179183647e-14,0.0,2.1373324394226074,-0.02137332409620285,0.3892039358615875,-0.02137332409620285,0.0,0.0,0.11842343956232071,0.8743972182273865,0.8226484633886911,2.789173126220703,1.8883825540542603,2.9075965881347656,2.076305389404297,3.007448196411133,0.9989833831787109,,,,,,,
4635340000.0,233.01,7.599999904632568,12041169408.0,1370.7615128088187,238.0,0.014510557055473328,978944.0,2467.7324464321136,1.9899012992929954e-14,0.0,2.0610008239746094,-0.020610012114048004,0.16502180695533752,-0.020610008388757706,-3.725290298461914e-09,0.0,0.012189753353595734,0.5744349956512451,0.9035420714554804,3.308347702026367,1.7728675603866577,3.320537567138672,1.8495749235153198,2.9881200790405273,0.9986796379089355,,,,,,,
4635340000.0,248.95,8.619999885559082,12041169408.0,1379.634241883204,239.0,0.02515423856675625,983040.0,2470.701349258423,2.0953724866323853e-14,0.0,2.011221170425415,-0.02011219784617424,0.23704540729522705,-0.020112210884690285,1.30385160446167e-08,0.0,0.1811794936656952,0.6643587946891785,0.9191131109113675,3.73477840423584,2.088022232055664,3.9159579277038574,2.3359508514404297,2.968902826309204,0.9992332458496094,,,,,,,
4635340000.0,261.17,9.739999771118164,12041169408.0,1338.7112728451493,240.0,0.029018566012382507,987136.0,2473.7610082626343,2.0608514894604468e-14,0.0,2.017505168914795,-0.0201750285923481,0.31192541122436523,-0.02017505094408989,2.2351741790771484e-08,0.0,0.29553312063217163,0.7325584888458252,0.8922484332834179,3.8921618461608887,2.0212841033935547,4.187695503234863,2.231673240661621,3.059659004211426,0.9989874362945557,,,,,,,
4635340000.0,267.18,10.739999771118164,12041169408.0,1393.7112789093858,241.0,0.02193891629576683,991232.0,2476.699923992157,2.0690046897975378e-14,0.0,2.0466549396514893,-0.02046656422317028,0.25686293840408325,-0.020466549322009087,-1.4901161193847656e-08,0.0,0.09548331052064896,0.7104449272155762,0.9006848451005571,3.6200661659240723,2.1780319213867188,3.7155492305755615,2.254356622695923,2.938915729522705,0.9993033409118652,,,,,,,
4635340000.0,271.39,10.350000381469727,12041169408.0,1398.1074773603334,242.0,0.016126075759530067,995328.0,2479.6295986175537,2.1323220966706913e-14,0.0,2.0098423957824707,-0.020098425447940826,0.5373553037643433,-0.020098423585295677,-1.862645149230957e-09,0.0,-0.12625300884246826,1.029091477394104,0.7680057624885256,3.762078285217285,2.0968101024627686,3.6358256340026855,2.1365621089935303,2.9296746253967285,0.999169111251831,,,,,,,
4635340000.0,267.35,10.479999542236328,12041169408.0,1363.1372186583963,243.0,0.014205245301127434,999424.0,2482.6344318389893,2.078198724220215e-14,0.0,1.9982128143310547,-0.019982129335403442,0.27401313185691833,-0.019982127472758293,-1.862645149230957e-09,0.0,0.04107210785150528,0.739237904548645,0.8736823803893282,3.8080151081085205,1.9027330875396729,3.8490872383117676,2.0799472332000732,3.004833221435547,1.000901222229004,,,,,,,
4635340000.0,275.34,11.260000228881836,12041169408.0,1421.769373513824,244.0,0.027261942625045776,1003520.0,2485.515349149704,2.2011906186669705e-14,0.0,2.0203747749328613,-0.02020375430583954,0.3550947308540344,-0.02020374685525894,-7.450580596923828e-09,0.0,0.10913170874118805,0.8357334136962891,0.8642966875661182,4.6977691650390625,2.237672805786133,4.806900978088379,2.268676519393921,2.8809173107147217,0.9991910457611084,,,,,,,
4635340000.0,286.26,11.6899995803833,12041169408.0,1312.5713111747502,245.0,0.016372742131352425,1007616.0,2488.635941505432,2.0875662309904897e-14,0.0,2.008500576019287,-0.02008501999080181,0.7409289479255676,-0.020085005089640617,-1.4901161193847656e-08,0.0,0.09135724604129791,1.2140311002731323,0.746131721399784,4.7689290046691895,2.2061872482299805,4.860286712646484,2.4094934463500977,3.1205923557281494,1.0007286071777344,,,,,,,
4635340000.0,280.93,11.289999961853027,12041169408.0,1362.4603766462362,246.0,0.021144038066267967,1011712.0,2491.6422674655914,2.3325091857984148e-14,0.0,2.0456743240356445,-0.020456742495298386,0.3742770254611969,-0.020456742495298386,0.0,0.0,-0.024840097874403,0.8649390935897827,0.8802519968583988,5.596183776855469,2.389763832092285,5.571343898773193,2.4994895458221436,3.0063259601593018,0.9995181560516357,,,,,,,
4635340000.0,290.48,11.770000457763672,12041169408.0,1356.959552108315,247.0,0.03304845094680786,1015808.0,2494.66078042984,2.1756901835701115e-14,0.0,2.0662384033203125,-0.02066238410770893,0.5103546380996704,-0.02066238410770893,0.0,0.0,0.07074245810508728,1.0079448223114014,0.8617883445579216,5.747736930847168,2.733538866043091,5.818479537963867,2.7112183570861816,3.0185129642486572,0.9988377094268799,,,,,,,
4635340000.0,279.08,11.130000114440918,12041169408.0,1399.2732018652666,248.0,0.01790916919708252,1019904.0,2497.5880143642426,2.1193116706008652e-14,0.0,2.1626694202423096,-0.021626697853207588,0.4068123698234558,-0.02162669412791729,-3.725290298461914e-09,0.0,0.06641946732997894,0.8996726274490356,0.841651816494889,5.305149555206299,2.1306774616241455,5.3715691566467285,2.2608821392059326,2.927233934402466,0.9995379447937012,,,,,,,
4635340000.0,288.22,12.300000190734863,12041169408.0,1389.6396627210468,249.0,0.029429424554109573,1024000.0,2500.5355410575867,2.2072621508328893e-14,0.0,2.1507515907287598,-0.0215075071901083,0.39190417528152466,-0.021507514640688896,7.450580596923828e-09,0.0,-0.033617809414863586,0.8847991228103638,0.88378687702782,5.965848445892334,2.3759829998016357,5.9322309494018555,2.5954761505126953,2.947526693344116,0.9988019466400146,,,,,,,
4635340000.0,289.94,12.770000457763672,12041169408.0,1385.7911591981258,250.0,0.014453437179327011,1028096.0,2503.491253376007,1.9373391779708982e-14,0.0,2.178892135620117,-0.021788926795125008,0.4976855516433716,-0.02178892120718956,-5.587935447692871e-09,0.0,-0.11891394853591919,0.9906917214393616,0.8118472485675835,5.558115005493164,2.1787497997283936,5.4392008781433105,2.2839319705963135,2.95571231842041,1.001901388168335,,,,,,,
4635340000.0,293.22,11.960000038146973,12041169408.0,1350.143442752107,251.0,0.02074005827307701,1032192.0,2506.5250051021576,2.0816681711721685e-14,0.0,2.2081727981567383,-0.02208172343671322,0.569587230682373,-0.022081727162003517,3.725290298461914e-09,0.0,-0.1323578655719757,1.0592119693756104,0.7720243491819472,5.490750789642334,2.150381088256836,5.35839319229126,2.2183942794799805,3.0337517261505127,0.9986402988433838,,,,,,,
4635340000.0,281.9,11.970000267028809,12041169408.0,1368.6643569682276,252.0,0.021976199001073837,1036288.0,2509.517703771591,2.2051804826617172e-14,0.0,2.155125141143799,-0.02155124396085739,0.46820998191833496,-0.02155125141143799,8.381903171539307e-09,0.0,-0.0730617344379425,0.9650437235832214,0.8396910451153945,6.297834396362305,2.209282636642456,6.224773406982422,2.4102842807769775,2.9926986694335938,0.9988231658935547,,,,,,,
4635340000.0,287.63,12.149999618530273,12041169408.0,1375.512392996651,253.0,0.022219128906726837,1040384.0,2512.4955031871796,2.237272866967288e-14,0.0,2.1762571334838867,-0.021762579679489136,0.36350733041763306,-0.02176257036626339,-9.313225746154785e-09,0.0,-0.016218766570091248,0.8526014089584351,0.8946444834450993,6.075286865234375,2.5428812503814697,6.05906867980957,2.626742362976074,2.977799415588379,0.998633861541748,,,,,,,
4635340000.0,273.33,11.029999732971191,12041169408.0,1410.147953718559,254.0,0.01799720898270607,1044480.0,2515.400162935257,2.06883121744994e-14,0.0,2.1834306716918945,-0.02183431014418602,0.5080958604812622,-0.02183430641889572,-4.190951585769653e-09,0.0,-0.17105838656425476,0.9935652017593384,0.7691285650004742,4.587862014770508,1.979020118713379,4.41680383682251,2.0678136348724365,2.9046597480773926,0.9985766410827637,,,,,,,
4635340000.0,276.77,10.470000267028809,12041169408.0,1415.0236947439541,255.0,0.017479192465543747,1048576.0,2518.2948141098022,2.2575691316362168e-14,0.0,2.165358304977417,-0.021653568372130394,0.6126890182495117,-0.021653583273291588,1.4901161193847656e-08,0.0,-0.08238281309604645,1.1040328741073608,0.7702222867784836,4.755525588989258,2.220496892929077,4.67314338684082,2.3031818866729736,2.894651174545288,0.9992780685424805,,,,,,,
,,,,,,,,,,,,,,,,,,,,,,,,,,0.021629925817251205,1.0354760885238647,0.9943369030952454,0.021629925817251205,1.0354760885238647,0.9943369030952454,
,,,,,,,,,,,,,,,,,,,,,,,,,,0.026883753016591072,0.9657829403877258,0.9489178657531738,0.026883753016591072,0.9657829403877258,0.9489178657531738,
,,,,,,,,,,,,,,,,,,,,,,,,,,0.020641665905714035,0.8894214034080505,0.8651878237724304,0.020641665905714035,0.8894214034080505,0.8651878237724304,
,,,,,,,,,,,,,,,,,,,,,,,,,,0.020703913643956184,0.816798210144043,0.8040526509284973,0.020703913643956184,0.816798210144043,0.8040526509284973,
,,,,,,,,,,,,,,,,,,,,,,,,,,0.015959182754158974,0.7604400515556335,0.7584977746009827,0.015959182754158974,0.7604400515556335,0.7584977746009827,
,,,,,,,,,,,,,,,,,,,,,,,,,,0.016376325860619545,0.7507436275482178,0.7516283988952637,0.016376325860619545,0.7507436275482178,0.7516283988952637,
,,,,,,,,,,,,,,,,,,,,,,,,,,,,,,,,11.5
