CpuMaxMemory,EpLenMean,EpRewMean,GpuMaxMemory,IPS_total,Iter,Misc/FrameRewMean,Misc/InteractCount,Misc/TimeElapsed,Opt/approxkl,Opt/clipfrac,Opt/entropy,Opt/loss_pi,Opt/loss_vf,Opt/negent,Opt/pg,Opt/pi_kl,VFStats/AdvMean,VFStats/AdvStd,VFStats/EV,VFStats/VpredMean,VFStats/VpredStd,VFStats/VtargMean,VFStats/VtargStd,del_time,wait_optimization,scaled/pol_distance,scaled/vf_aux,scaled/vf_true,unscaled/pol_distance,unscaled/vf_aux,unscaled/vf_true,EvalEpMean
3809904000.0,76.77272727272727,-1.9090908765792847,12268077568.0,1203.1115856676245,0.0,-0.010677674785256386,4096.0,3.404505491256714,4.642120021713936e-15,0.0,2.7075388431549072,-0.02707541175186634,0.14830926060676575,-0.0270753875374794,-2.421438694000244e-08,0.0,-0.14674901962280273,0.524547815322876,0.0018653092898435197,-0.03147014603018761,0.014996365644037724,-0.17821916937828064,0.5250377058982849,3.404505491256714,0.4945039749145508,,,,,,,
4009900000.0,81.04301075268818,-2.021505355834961,12485313536.0,1246.5375620253299,1.0,-0.014258401468396187,8192.0,6.6904072761535645,4.496403249731884e-15,0.0,2.7061920166015625,-0.02706191875040531,0.17076721787452698,-0.02706191875040531,0.0,0.0,-0.10273460298776627,0.5753788948059082,0.02369310081428333,-0.41167503595352173,0.10392044484615326,-0.5144096612930298,0.5823187232017517,3.2859017848968506,0.493044376373291,,,,,,,
4207368000.0,79.66,-2.630000114440918,12485313536.0,1220.7950580020633,2.0,-0.01934482343494892,12288.0,10.045597791671753,5.266620473065586e-15,0.0,2.7021141052246094,-0.027021143585443497,0.24542579054832458,-0.027021139860153198,-3.725290298461914e-09,0.0,-0.024173371493816376,0.7002763152122498,0.0882374116798813,-0.9945622682571411,0.2630954086780548,-1.018735647201538,0.7333791255950928,3.3551905155181885,0.49021410942077637,,,,,,,
4405104000.0,77.92,-2.7300000190734863,12485313536.0,1259.1804654620219,3.0,-0.013564366847276688,16384.0,13.29850721359253,7.792377854087817e-15,0.0,2.690479278564453,-0.026904795318841934,0.32797104120254517,-0.026904791593551636,-3.725290298461914e-09,0.0,0.2086453139781952,0.7826613187789917,0.09790370646811031,-1.6810524463653564,0.46744218468666077,-1.4724071025848389,0.8240383267402649,3.2529094219207764,0.48981642723083496,,,,,,,
4602576000.0,77.98,-2.4000000953674316,12485313536.0,1250.2110699828804,4.0,-0.018115095794200897,20480.0,16.574753999710083,1.106753577673203e-14,0.0,2.6630473136901855,-0.026630472391843796,0.23719966411590576,-0.026630472391843796,0.0,0.0,0.04916314035654068,0.6870935559272766,0.04208909664799709,-1.176265835762024,0.2773122489452362,-1.1271028518676758,0.7020263671875,3.2762467861175537,0.4904592037200928,,,,,,,
4800048000.0,76.04,-2.75,12485313536.0,1235.8963715302557,5.0,-0.017232559621334076,24576.0,19.88894772529602,1.2328679743767168e-14,0.0,2.6458821296691895,-0.026458831503987312,0.22496913373470306,-0.026458820328116417,-1.1175870895385742e-08,0.0,-0.060978714376688004,0.6680784225463867,0.10842312705432222,-0.7945858240127563,0.22162380814552307,-0.855564534664154,0.7075352668762207,3.3141937255859375,0.4904499053955078,,,,,,,
4997784000.0,76.92,-2.369999885559082,12485313536.0,1225.4922289077128,6.0,-0.012354962527751923,28672.0,23.23127818107605,1.3116244201860638e-14,0.0,2.591728687286377,-0.025917289778590202,0.16422903537750244,-0.025917286053299904,-3.725290298461914e-09,0.0,-0.012730658054351807,0.5730410814285278,0.1021299611194234,-0.6307474374771118,0.15940360724925995,-0.6434780955314636,0.6047545075416565,3.3423304557800293,0.49013447761535645,,,,,,,
5195256000.0,71.37,-1.850000023841858,12485313536.0,1194.2487644679509,7.0,-0.014249097555875778,32768.0,26.661049365997314,1.4661882818955974e-14,0.0,2.5109102725982666,-0.02510908991098404,0.1652914136648178,-0.025109102949500084,1.30385160446167e-08,0.0,-0.06445863842964172,0.5714084506034851,0.08212772166120907,-0.5102064609527588,0.13307707011699677,-0.5746651291847229,0.5964245796203613,3.4297711849212646,0.4928627014160156,,,,,,,
5393520000.0,72.51,-2.5,12485313536.0,1210.2443799288951,8.0,-0.02000931091606617,36864.0,30.04548978805542,1.6214460329955216e-14,0.0,2.4155611991882324,-0.024155599996447563,0.23117375373840332,-0.02415561117231846,1.1175870895385742e-08,0.0,-0.15540292859077454,0.6620456576347351,0.05782023953763138,-0.4582551121711731,0.12610125541687012,-0.6136580109596252,0.6820575594902039,3.3844404220581055,0.5188570022583008,,,,,,,
5591256000.0,74.05,-2.4800000190734863,12485313536.0,1246.4631291512508,9.0,-0.014138375408947468,40960.0,33.33158779144287,1.6682835668468954e-14,0.0,2.4148452281951904,-0.024148456752300262,0.18975260853767395,-0.024148451164364815,-5.587935447692871e-09,0.0,-0.10581359267234802,0.6069585084915161,0.049200813825403644,-0.43777239322662354,0.11690160632133484,-0.543586015701294,0.6224644780158997,3.286098003387451,0.48981380462646484,,,,,,,
5788728000.0,77.51,-2.690000057220459,12485313536.0,1256.888462151603,10.0,-0.018432099372148514,45056.0,36.590429067611694,1.5544857068228168e-14,0.0,2.4995265007019043,-0.02499525435268879,0.22880765795707703,-0.024995263665914536,9.313225746154785e-09,0.0,-0.14572063088417053,0.6606719493865967,0.04521430616012212,-0.4182335138320923,0.1389002799987793,-0.5639541149139404,0.6761341691017151,3.2588412761688232,0.49009227752685547,,,,,,,
5986464000.0,76.98,-2.640000104904175,12485313536.0,1224.4468144504924,11.0,-0.012873628176748753,49152.0,39.93561315536499,1.3395534681492904e-14,0.0,2.50384259223938,-0.025038428604602814,0.18200360238552094,-0.025038424879312515,-3.259629011154175e-09,0.0,-0.08820579946041107,0.596920371055603,-0.0011635714779663076,-0.47001200914382935,0.14498773217201233,-0.5582177639007568,0.5965734124183655,3.345184087753296,0.49029994010925293,,,,,,,
6183936000.0,76.05,-1.8200000524520874,12485313536.0,1256.742087420611,12.0,-0.012386506423354149,53248.0,43.19483399391174,1.3624518180321843e-14,0.0,2.470644950866699,-0.024706443771719933,0.16763949394226074,-0.02470644935965538,5.587935447692871e-09,0.0,-0.014382382854819298,0.578924834728241,0.16439602133354736,-0.6029243469238281,0.1909264475107193,-0.6173067092895508,0.6333181262016296,3.259220838546753,0.49008941650390625,,,,,,,
6381672000.0,78.15,-1.6699999570846558,12485313536.0,1241.0364007127562,13.0,-0.00910278595983982,57344.0,46.495301246643066,1.338165689368509e-14,0.0,2.476175308227539,-0.024761764332652092,0.1456601321697235,-0.024761753156781197,-1.1175870895385742e-08,0.0,0.02265980653464794,0.5393308997154236,0.18134044962067464,-0.6946649551391602,0.23516429960727692,-0.6720051765441895,0.5960787534713745,3.3004672527313232,0.4925572872161865,,,,,,,
6579640000.0,83.52,-1.940000057220459,12485313536.0,1259.3420865360793,14.0,-0.014140479266643524,61440.0,49.747793197631836,1.2195106036116954e-14,0.0,2.5711236000061035,-0.025711242109537125,0.18161210417747498,-0.025711234658956528,-7.450580596923828e-09,0.0,-0.04848785698413849,0.6008005142211914,0.06678758194934942,-0.7125160098075867,0.23453602194786072,-0.761003851890564,0.6219279170036316,3.2524919509887695,0.4927847385406494,,,,,,,
6777376000.0,84.15,-1.690000057220459,12485313536.0,1236.355755657684,15.0,-0.010001224465668201,65536.0,53.060755491256714,1.0932227345605838e-14,0.0,2.603182077407837,-0.02603181265294552,0.19074887037277222,-0.026031820103526115,7.450580596923828e-09,0.0,0.007602885365486145,0.6176836490631104,0.19668599060130942,-0.8062796592712402,0.2715134918689728,-0.7986768484115601,0.6891653537750244,3.312962293624878,0.4899559020996094,,,,,,,
6974320000.0,79.03,-1.840000033378601,12485313536.0,1251.6728271344334,16.0,-0.01650235615670681,69632.0,56.333176136016846,1.0940900962985722e-14,0.0,2.605360507965088,-0.026053614914417267,0.22667956352233887,-0.02605360373854637,-1.0710209608078003e-08,0.0,0.024802569299936295,0.6729446649551392,0.1805968402961997,-0.9475395679473877,0.3348113000392914,-0.9227370619773865,0.7434136271476746,3.272420644760132,0.48995518684387207,,,,,,,
7172056000.0,77.53,-2.4000000953674316,12485313536.0,1242.506603596802,17.0,-0.016847435384988785,73728.0,59.629738092422485,1.1220191442617988e-14,0.0,2.612870693206787,-0.026128701865673065,0.2219729721546173,-0.026128705590963364,3.725290298461914e-09,0.0,0.029744619503617287,0.6657097339630127,0.1842548740604827,-0.9813921451568604,0.33542656898498535,-0.9516475200653076,0.7370681166648865,3.2965619564056396,0.4899756908416748,,,,,,,
7369792000.0,79.61,-2.75,12485313536.0,1259.4375464503605,18.0,-0.016921542584896088,77824.0,62.881983518600464,1.0854164789186882e-14,0.0,2.622785806655884,-0.026227861642837524,0.22814160585403442,-0.026227857917547226,-3.725290298461914e-09,0.0,-0.005697011947631836,0.675545871257782,0.19318705697068772,-0.940143883228302,0.34605252742767334,-0.9458408355712891,0.7520875334739685,3.2522454261779785,0.4898543357849121,,,,,,,
7567264000.0,80.42,-2.6600000858306885,12485313536.0,1243.5578928380799,19.0,-0.017382865771651268,81920.0,66.17575860023499,1.0609568779074152e-14,0.0,2.630664825439453,-0.026306655257940292,0.22682683169841766,-0.026306647807359695,-7.450580596923828e-09,0.0,-0.028648335486650467,0.6730107665061951,0.1361639222740576,-0.9625744819641113,0.28376880288124084,-0.9912228584289551,0.7241130471229553,3.2937750816345215,0.4898345470428467,,,,,,,
7765792000.0,82.27,-2.380000114440918,12485313536.0,1242.1187891057111,20.0,-0.009229256771504879,86016.0,69.4733498096466,1.0240072678691092e-14,0.0,2.637871503829956,-0.026378702372312546,0.1443372368812561,-0.02637871354818344,1.1175870895385742e-08,0.0,0.09976577758789062,0.5280050039291382,0.3482062409197938,-0.8778733015060425,0.3983514606952667,-0.7781075239181519,0.6540077924728394,3.297591209411621,0.48998427391052246,,,,,,,
7963528000.0,84.5,-1.9299999475479126,12485313536.0,1202.701744007815,21.0,-0.0140629718080163,90112.0,72.87901544570923,9.686695889854491e-15,0.0,2.6337122917175293,-0.026337116956710815,0.19228312373161316,-0.026337122544646263,5.587935447692871e-09,0.0,0.0005214130505919456,0.6202095746994019,0.18372502596784523,-0.823229193687439,0.37282851338386536,-0.8227077722549438,0.6864678263664246,3.405665636062622,0.4899003505706787,,,,,,,
8161264000.0,85.2,-2.0199999809265137,12485313536.0,1251.8093580384188,22.0,-0.012261923402547836,94208.0,76.15107917785645,8.729128531115293e-15,0.0,2.6532063484191895,-0.02653205208480358,0.17519570887088776,-0.026532063260674477,1.1175870895385742e-08,0.0,-0.0193178728222847,0.5916956067085266,0.1864317851249664,-0.5923182964324951,0.2733728587627411,-0.6116361021995544,0.6559962630271912,3.272063732147217,0.5065371990203857,,,,,,,
8358736000.0,82.64,-2.509999990463257,12485313536.0,1192.4120913172512,23.0,-0.015030687674880028,98304.0,79.58613324165344,9.079542673262608e-15,0.0,2.648017406463623,-0.026480162516236305,0.17684489488601685,-0.0264801736921072,1.1175870895385742e-08,0.0,-0.11019892990589142,0.5844907164573669,0.12683525044056232,-0.5350501537322998,0.25013208389282227,-0.6452491283416748,0.6255031824111938,3.435054063796997,0.4928579330444336,,,,,,,
8557264000.0,80.1,-2.4600000381469727,12485313536.0,1248.1981950393551,24.0,-0.01596084237098694,102400.0,82.86766338348389,9.84975989659631e-15,0.0,2.640933036804199,-0.026409326121211052,0.1678282618522644,-0.02640932984650135,3.725290298461914e-09,0.0,-0.08139734715223312,0.5736823081970215,0.14726991168631187,-0.520892858505249,0.20392070710659027,-0.6022902727127075,0.6212489604949951,3.2815301418304443,0.49002623558044434,,,,,,,
8754644000.0,85.39,-2.440000057220459,12485313536.0,1212.132165463086,25.0,-0.015445683151483536,106496.0,86.24683284759521,1.0236603231739139e-14,0.0,2.629678726196289,-0.02629678323864937,0.21519392728805542,-0.026296786963939667,3.725290298461914e-09,0.0,-0.1003907322883606,0.6483920216560364,0.12258829187975295,-0.5459932684898376,0.20244711637496948,-0.6463840007781982,0.6922069191932678,3.379169464111328,0.4929201602935791,,,,,,,
8952116000.0,79.07,-2.319999933242798,12485313536.0,1228.191512402827,26.0,-0.013253703713417053,110592.0,89.58181762695312,1.0524567328751289e-14,0.0,2.6102511882781982,-0.026102516800165176,0.16208061575889587,-0.02610251121222973,-5.587935447692871e-09,0.0,0.02334904856979847,0.5689420700073242,0.23613254758856683,-0.7259745597839355,0.3117072880268097,-0.702625572681427,0.6509671211242676,3.33498477935791,0.49024319648742676,,,,,,,
9149588000.0,71.66,-1.7699999809265137,12485313536.0,1222.0457873740795,27.0,-0.013074105605483055,114688.0,92.93357419967651,1.0222725443931324e-14,0.0,2.607243776321411,-0.026072442531585693,0.16988062858581543,-0.026072436943650246,-5.587935447692871e-09,0.0,0.04508677124977112,0.5812150239944458,0.19921180178706377,-0.7825947999954224,0.33755436539649963,-0.7375079989433289,0.6494982838630676,3.3517565727233887,0.4901716709136963,,,,,,,
9347324000.0,73.44,-1.600000023841858,12485313536.0,1229.5873303158353,28.0,-0.010635627433657646,118784.0,96.26477313041687,1.005098781980962e-14,0.0,2.609633445739746,-0.02609632909297943,0.17061880230903625,-0.02609633468091488,5.587935447692871e-09,0.0,0.0365237221121788,0.5830836892127991,0.19123796002395588,-0.7829424142837524,0.3402966558933258,-0.7464187145233154,0.648366391658783,3.3311989307403564,0.48970794677734375,,,,,,,
9544796000.0,75.03,-1.850000023841858,12485313536.0,1227.9487834244235,29.0,-0.015676425769925117,122880.0,99.600417137146,1.0332013022917863e-14,0.0,2.6012887954711914,-0.026012888178229332,0.18884076178073883,-0.026012888178229332,-2.3283064365386963e-10,0.0,-0.03544412553310394,0.6136099696159363,0.23284008502784037,-0.7318466305732727,0.30685776472091675,-0.7672907710075378,0.7005666494369507,3.335644006729126,0.4937620162963867,,,,,,,
9743324000.0,75.42,-1.7000000476837158,12485313536.0,1249.743061199831,30.0,-0.007937153801321983,126976.0,102.8778908252716,9.870576578308032e-15,0.0,2.5977611541748047,-0.025977615267038345,0.14025568962097168,-0.025977611541748047,-3.725290298461914e-09,0.0,0.07448354363441467,0.5244337320327759,0.25017418560878946,-0.672181248664856,0.3079589903354645,-0.5976977348327637,0.6056342720985413,3.2774736881256104,0.489835262298584,,,,,,,
9941060000.0,74.2,-2.130000114440918,12485313536.0,1257.1020170933516,31.0,-0.02120308205485344,131072.0,106.13617849349976,1.0854164789186882e-14,0.0,2.5862865447998047,-0.02586286887526512,0.22940745949745178,-0.025862865149974823,-3.725290298461914e-09,0.0,-0.11797884851694107,0.6670866012573242,0.14648931857293424,-0.6487005949020386,0.2668115496635437,-0.7666794657707214,0.7220674157142639,3.2582876682281494,0.49016594886779785,,,,,,,
,,,,,,,,,,,,,,,,,,,,,,,,,,0.005520167760550976,0.2192174196243286,0.20827774703502655,0.005520167760550976,0.2192174196243286,0.20827774703502655,
,,,,,,,,,,,,,,,,,,,,,,,,,,0.002129678148776293,0.17565792798995972,0.17054548859596252,0.002129678148776293,0.17565792798995972,0.17054548859596252,
,,,,,,,,,,,,,,,,,,,,,,,,,,0.00199613394215703,0.1593863070011139,0.1619187444448471,0.00199613394215703,0.1593863070011139,0.1619187444448471,
,,,,,,,,,,,,,,,,,,,,,,,,,,0.0010496630566194654,0.15136495232582092,0.15374073386192322,0.0010496630566194654,0.15136495232582092,0.15374073386192322,
,,,,,,,,,,,,,,,,,,,,,,,,,,0.0013074856251478195,0.1466538906097412,0.14978782832622528,0.0013074856251478195,0.1466538906097412,0.14978782832622528,
,,,,,,,,,,,,,,,,,,,,,,,,,,0.0021031287033110857,0.14565511047840118,0.14927254617214203,0.0021031287033110857,0.14565511047840118,0.14927254617214203,
,,,,,,,,,,,,,,,,,,,,,,,,,,,,,,,,-1.54
9994668000.0,73.89,-2.549999952316284,12293100544.0,27.389549813306353,32.0,-0.012596311047673225,135168.0,255.68226552009583,1.0191500421363742e-14,0.0,2.556185722351074,-0.025561854243278503,0.12261339277029037,-0.025561856105923653,1.862645149230957e-09,0.0,0.010130977258086205,0.4951605796813965,0.5100604762937502,-0.7672247886657715,0.426037073135376,-0.7570937871932983,0.7074159383773804,149.54608702659607,0.5197494029998779,,,,,,,
9994668000.0,75.54,-2.180000066757202,12495335936.0,1214.2627615358492,33.0,-0.017549751326441765,139264.0,259.0555057525635,1.0850695342234928e-14,0.0,2.5305705070495605,-0.025305703282356262,0.16131924092769623,-0.02530570514500141,2.3283064365386963e-09,0.0,0.0240890234708786,0.5675709843635559,0.51467441758696,-0.9096683263778687,0.5102148652076721,-0.8855793476104736,0.8147110342979431,3.3732402324676514,0.4901118278503418,,,,,,,
9994668000.0,73.61,-2.390000104904175,12495335936.0,1237.452006700731,34.0,-0.015775345265865326,143360.0,262.3655331134796,1.0571404862602662e-14,0.0,2.5076165199279785,-0.02507615089416504,0.1283273547887802,-0.025076163932681084,1.30385160446167e-08,0.0,0.0556558221578598,0.5036060214042664,0.604531820086494,-0.8168030977249146,0.49600881338119507,-0.7611472606658936,0.800820529460907,3.3100273609161377,0.48978400230407715,,,,,,,
9994668000.0,72.95,-2.119999885559082,12495335936.0,1215.8496468028961,35.0,-0.012517412193119526,147456.0,265.7343707084656,1.1253151188661548e-14,0.0,2.4759042263031006,-0.02475903369486332,0.14415234327316284,-0.024759041145443916,7.450580596923828e-09,0.0,0.0874423086643219,0.5298368334770203,0.5611072234486222,-0.877754807472229,0.5925480127334595,-0.7903125286102295,0.7997660636901855,3.368837594985962,0.4900338649749756,,,,,,,
9994668000.0,74.7,-1.7999999523162842,12495335936.0,1157.168384976014,36.0,-0.01242967788130045,151552.0,269.2740457057953,1.1551523626529558e-14,0.0,2.431993246078491,-0.02431992068886757,0.12150160223245621,-0.024319931864738464,1.1175870895385742e-08,0.0,0.08299589157104492,0.48597583174705505,0.6581030853615465,-0.8835209012031555,0.6106446385383606,-0.8005250692367554,0.8311264514923096,3.539674997329712,0.49013495445251465,,,,,,,
9994668000.0,72.96,-1.7200000286102295,12495335936.0,1182.9635959117072,37.0,-0.012486896477639675,155648.0,272.736536026001,1.1293049828609014e-14,0.0,2.4154622554779053,-0.024154625833034515,0.10493509471416473,-0.024154622107744217,-3.725290298461914e-09,0.0,0.11283383518457413,0.44405728578567505,0.6521874418073825,-0.7840287685394287,0.5931934714317322,-0.6711949110031128,0.7529503703117371,3.4624903202056885,0.4902536869049072,,,,,,,
9994668000.0,71.46,-1.9600000381469727,12495335936.0,1219.4697554646395,38.0,-0.017201576381921768,159744.0,276.09537291526794,1.1759690443646775e-14,0.0,2.4281952381134033,-0.024281946942210197,0.11600738018751144,-0.024281952530145645,5.587935447692871e-09,0.0,-0.03098466992378235,0.48074018955230713,0.6424148496624105,-0.5743398666381836,0.5144345164299011,-0.6053245067596436,0.8039345145225525,3.3588368892669678,0.49015164375305176,,,,,,,
9994668000.0,69.78,-1.909999966621399,12495335936.0,1201.139398042799,39.0,-0.016059981659054756,163840.0,279.5054683685303,1.1978265601619853e-14,0.0,2.390258550643921,-0.023902589455246925,0.12236057966947556,-0.023902585729956627,-3.725290298461914e-09,0.0,0.02533547207713127,0.4941041171550751,0.6357192986266351,-0.634014904499054,0.591381847858429,-0.6086794137954712,0.8186540007591248,3.410095453262329,0.49010324478149414,,,,,,,
9994668000.0,73.75,-2.4600000381469727,12495335936.0,1193.6071349069798,40.0,-0.018556643277406693,167936.0,282.93708324432373,1.2590622988639666e-14,0.0,2.344937324523926,-0.0234493650496006,0.12542316317558289,-0.023449372500181198,7.450580596923828e-09,0.0,-0.03774251043796539,0.49948248267173767,0.687498742126611,-0.6150979995727539,0.6514379382133484,-0.6528404951095581,0.8934996128082275,3.431614875793457,0.5204293727874756,,,,,,,
9994668000.0,77.85,-1.9800000190734863,12495335936.0,1208.0090898102533,41.0,-0.008933275938034058,172032.0,286.3277862071991,1.1733669591507123e-14,0.0,2.386475086212158,-0.023864753544330597,0.08421586453914642,-0.0238647498190403,-2.7939677238464355e-09,0.0,0.039357248693704605,0.40856271982192993,0.6233175336047392,-0.3849024772644043,0.4985767602920532,-0.34554523229599,0.6656883955001831,3.390702962875366,0.4903135299682617,,,,,,,
9994668000.0,74.76,-1.2300000190734863,12495335936.0,1220.1343865393862,42.0,-0.010236299596726894,176128.0,289.68479347229004,1.2321740849863261e-14,0.0,2.358489513397217,-0.023584894835948944,0.11168546229600906,-0.023584894835948944,0.0,0.0,0.028792910277843475,0.4718010723590851,0.617622375894886,-0.430824875831604,0.6137610077857971,-0.40203195810317993,0.7629791498184204,3.3570072650909424,0.49037957191467285,,,,,,,
9994668000.0,73.25,-1.3700000047683716,12495335936.0,1236.865257335088,43.0,-0.010145862586796284,180224.0,292.99639105796814,1.1867243299157337e-14,0.0,2.356466770172119,-0.023564662784337997,0.11642827093601227,-0.023564666509628296,3.259629011154175e-09,0.0,0.036650512367486954,0.48121702671051025,0.627352798861472,-0.45973727107048035,0.6657679080963135,-0.4230867624282837,0.7883009910583496,3.3115975856781006,0.4902198314666748,,,,,,,
9994668000.0,77.11,-1.6299999952316284,12495335936.0,1166.7936147785929,44.0,-0.009273204021155834,184320.0,296.50686621665955,1.1086617734967774e-14,0.0,2.372774124145508,-0.023727742955088615,0.10792273283004761,-0.023727741092443466,-1.862645149230957e-09,0.0,-0.013495244085788727,0.4644523561000824,0.5110777989962525,-0.33966338634490967,0.5147872567176819,-0.3531586527824402,0.6642342805862427,3.5104751586914062,0.48999977111816406,,,,,,,
9994668000.0,78.32,-1.3600000143051147,12495335936.0,1218.2233406136559,45.0,-0.010203679092228413,188416.0,299.8691396713257,1.234429225505096e-14,0.0,2.4003539085388184,-0.024003542959690094,0.1212501972913742,-0.024003539234399796,-3.725290298461914e-09,0.0,0.010464807040989399,0.4923921525478363,0.5476457847210161,-0.32851555943489075,0.6086825132369995,-0.318050742149353,0.7321024537086487,3.3622734546661377,0.4899289608001709,,,,,,,
9994668000.0,73.2,-1.6699999570846558,12495335936.0,1244.7694060883164,46.0,-0.013443542644381523,192512.0,303.1597089767456,1.2713788355434019e-14,0.0,2.42461895942688,-0.02424618788063526,0.12502092123031616,-0.02424618974328041,1.862645149230957e-09,0.0,-0.044165223836898804,0.49814844131469727,0.5342658605056257,-0.29624998569488525,0.5155630111694336,-0.34041520953178406,0.7299442291259766,3.290569305419922,0.49222564697265625,,,,,,,
9994668000.0,74.97,-1.6299999952316284,12495335936.0,1191.4963674342005,47.0,-0.00956998486071825,196608.0,306.597403049469,1.2156942119645464e-14,0.0,2.4364452362060547,-0.024364450946450233,0.10935375839471817,-0.024364450946450233,0.0,0.0,-0.02343611605465412,0.4671311676502228,0.4806860476142818,-0.21586871147155762,0.5109367370605469,-0.23930484056472778,0.6482221484184265,3.4376940727233887,0.4904475212097168,,,,,,,
9994668000.0,75.77,-1.6200000047683716,12495335936.0,1199.4901488503203,48.0,-0.013725411146879196,200704.0,310.01218724250793,1.193663223819641e-14,0.0,2.4336133003234863,-0.024336129426956177,0.10533887147903442,-0.024336133152246475,3.026798367500305e-09,0.0,-0.05114606022834778,0.4561936557292938,0.663220825527693,-0.2661359906196594,0.5827124714851379,-0.3172820806503296,0.7860978841781616,3.4147841930389404,0.4901595115661621,,,,,,,
9994668000.0,68.48,-1.7000000476837158,12495335936.0,1189.2846975414154,49.0,-0.012842418625950813,204800.0,313.45627427101135,1.1792650189690335e-14,0.0,2.4402236938476562,-0.02440224401652813,0.11181050539016724,-0.024402236565947533,-7.450580596923828e-09,0.0,-0.0021540261805057526,0.4729386866092682,0.5966759808079083,-0.3533018231391907,0.5888673663139343,-0.3554558753967285,0.74469393491745,3.444087028503418,0.4906575679779053,,,,,,,
9994668000.0,70.73,-1.899999976158142,12495335936.0,1191.7678862448197,50.0,-0.014150606468319893,208896.0,316.8931851387024,1.1667750099420005e-14,0.0,2.4359350204467773,-0.024359356611967087,0.11035092175006866,-0.02435934916138649,-7.450580596923828e-09,0.0,-0.003212006762623787,0.4698355495929718,0.6785162505082485,-0.4072120189666748,0.6880627870559692,-0.41042399406433105,0.8286408185958862,3.43691086769104,0.4904766082763672,,,,,,,
9994668000.0,73.19,-2.049999952316284,12495335936.0,1189.4583543434496,51.0,-0.014824269339442253,212992.0,320.3367693424225,1.230612833857947e-14,0.0,2.471160411834717,-0.02471160516142845,0.100971519947052,-0.024711603298783302,-1.862645149230957e-09,0.0,-0.02391175925731659,0.44879889488220215,0.6925078069383622,-0.33552902936935425,0.6634504795074463,-0.35944077372550964,0.8093469142913818,3.4435842037200928,0.49071264266967773,,,,,,,
9994668000.0,75.01,-1.7799999713897705,12495335936.0,1171.2801012244606,52.0,-0.00965108908712864,217088.0,323.83379793167114,1.1450909664922904e-14,0.0,2.4944944381713867,-0.024944940581917763,0.0876963809132576,-0.02494494430720806,3.725290298461914e-09,0.0,-0.009381318464875221,0.418745219707489,0.6620005733884837,-0.3113698363304138,0.5812609195709229,-0.3207511603832245,0.7202643156051636,3.4970285892486572,0.49036216735839844,,,,,,,
9994668000.0,77.03,-1.3799999952316284,12495335936.0,1186.5079061878102,53.0,-0.010327063500881195,221184.0,327.28594517707825,1.1497747198774277e-14,0.0,2.4942421913146973,-0.024942420423030853,0.09405828267335892,-0.024942422285676003,2.7939677238464355e-09,0.0,0.003118796506896615,0.43376582860946655,0.6363471069436183,-0.3570609390735626,0.5779764652252197,-0.3539421558380127,0.7193028330802917,3.4521472454071045,0.48993611335754395,,,,,,,
9994668000.0,76.06,-1.5399999618530273,12495335936.0,1209.1019171589971,54.0,-0.013344116508960724,225280.0,330.67358350753784,1.1749282102790914e-14,0.0,2.5271005630493164,-0.025271013379096985,0.12056846916675568,-0.025271005928516388,-7.450580596923828e-09,0.0,-0.017896685749292374,0.49079063534736633,0.6330316113268853,-0.3937768042087555,0.6258326172828674,-0.41167348623275757,0.8101807832717896,3.3876383304595947,0.5176212787628174,,,,,,,
9994668000.0,74.86,-1.9700000286102295,12495335936.0,1201.6537332161513,55.0,-0.012698883190751076,229376.0,334.0822193622589,1.1277437317325223e-14,0.0,2.514772891998291,-0.025147734209895134,0.12457548081874847,-0.025147728621959686,-5.587935447692871e-09,0.0,-0.05404600501060486,0.49627625942230225,0.5926216552310706,-0.30113691091537476,0.5288954973220825,-0.355182945728302,0.7775431871414185,3.4086358547210693,0.4903855323791504,,,,,,,
9994668000.0,73.29,-1.899999976158142,12495335936.0,1224.13141827749,56.0,-0.013762421905994415,233472.0,337.42826533317566,1.1721526527175286e-14,0.0,2.4668967723846436,-0.02466895990073681,0.12860092520713806,-0.024668967351317406,7.450580596923828e-09,0.0,-0.019411828368902206,0.5068409442901611,0.6361901622819847,-0.4931209087371826,0.6562228202819824,-0.5125327706336975,0.8403002023696899,3.346045970916748,0.4900643825531006,,,,,,,
9994668000.0,73.7,-1.75,12495335936.0,1234.8684645903802,57.0,-0.012469358742237091,237568.0,340.7452178001404,1.1797854360118265e-14,0.0,2.471104145050049,-0.02471104823052883,0.11488112807273865,-0.024711040779948235,-7.450580596923828e-09,0.0,0.03318493068218231,0.47824349999427795,0.6465550756941367,-0.4996935725212097,0.7088685631752014,-0.4665086269378662,0.8044298887252808,3.3169524669647217,0.4903998374938965,,,,,,,
9994668000.0,74.68,-1.649999976158142,12495335936.0,1239.0386388992004,58.0,-0.010393526405096054,241664.0,344.05100655555725,1.177356823145459e-14,0.0,2.488072395324707,-0.02488071471452713,0.10473118722438812,-0.024880724027752876,9.313225746154785e-09,0.0,0.03181666508316994,0.4566190838813782,0.6389319647319842,-0.525140643119812,0.6500349044799805,-0.4933239817619324,0.7599053978919983,3.30578875541687,0.4899733066558838,,,,,,,
9994668000.0,75.33,-1.4299999475479126,12495335936.0,1235.8108472792317,59.0,-0.008569903671741486,245760.0,347.3654296398163,1.226276025168005e-14,0.0,2.4792513847351074,-0.024792514741420746,0.10511777549982071,-0.024792512878775597,-2.7939677238464355e-09,0.0,0.0819019228219986,0.45119544863700867,0.5980531624015413,-0.4901067614555359,0.6275317668914795,-0.4082048535346985,0.711672842502594,3.314423084259033,0.49010252952575684,,,,,,,
9994668000.0,73.95,-1.559999942779541,12495335936.0,1221.5331327387166,60.0,-0.014404556713998318,249856.0,350.7185928821564,1.3194306758279595e-14,0.0,2.440772533416748,-0.024407725781202316,0.1039951741695404,-0.024407723918557167,-1.862645149230957e-09,0.0,-0.02194640412926674,0.45558685064315796,0.6146659063951617,-0.40823185443878174,0.5848227143287659,-0.43017828464508057,0.7339263558387756,3.353163242340088,0.4902493953704834,,,,,,,
9994668000.0,76.01,-1.8600000143051147,12495335936.0,1208.2540261609383,61.0,-0.014273138716816902,253952.0,354.1086084842682,1.2904607937791468e-14,0.0,2.450927972793579,-0.024509277194738388,0.11819185316562653,-0.024509279057383537,1.862645149230957e-09,0.0,-0.07490602135658264,0.48044684529304504,0.5803980598379196,-0.25422394275665283,0.4796711206436157,-0.32912999391555786,0.7416970729827881,3.3900156021118164,0.49027490615844727,,,,,,,
9994668000.0,78.46,-1.6399999856948853,12495335936.0,1196.9343466061218,62.0,-0.008608892560005188,258048.0,357.5306842327118,1.3445841662296232e-14,0.0,2.382317066192627,-0.023823169991374016,0.09537917375564575,-0.023823169991374016,0.0,0.0,0.031888335943222046,0.4356464445590973,0.5456613709317726,-0.3173925578594208,0.5060917735099792,-0.28550422191619873,0.6463150978088379,3.4220757484436035,0.4901440143585205,,,,,,,
9994668000.0,72.41,-1.159999966621399,12495335936.0,1167.9944501484888,63.0,-0.008239745162427425,262144.0,361.03755021095276,1.3768500228827918e-14,0.0,2.3703107833862305,-0.02370310388505459,0.08654440194368362,-0.023703107610344887,3.725290298461914e-09,0.0,0.0011530756019055843,0.41608861088752747,0.5485295671676691,-0.19619180262088776,0.47772055864334106,-0.19503873586654663,0.619257390499115,3.506865978240967,0.49059081077575684,,,,,,,
,,,,,,,,,,,,,,,,,,,,,,,,,,0.008643238805234432,0.15613001585006714,0.12425895035266876,0.008643238805234432,0.15613001585006714,0.12425895035266876,
,,,,,,,,,,,,,,,,,,,,,,,,,,0.002006296766921878,0.11946811527013779,0.11413812637329102,0.002006296766921878,0.11946811527013779,0.11413812637329102,
,,,,,,,,,,,,,,,,,,,,,,,,,,0.002330210292711854,0.11072376370429993,0.10604413598775864,0.002330210292711854,0.11072376370429993,0.10604413598775864,
,,,,,,,,,,,,,,,,,,,,,,,,,,0.00199450203217566,0.10386821627616882,0.10122282803058624,0.00199450203217566,0.10386821627616882,0.10122282803058624,
,,,,,,,,,,,,,,,,,,,,,,,,,,0.0025199640076607466,0.0989815890789032,0.09880345314741135,0.0025199640076607466,0.0989815890789032,0.09880345314741135,
,,,,,,,,,,,,,,,,,,,,,,,,,,0.0019069816917181015,0.0959310457110405,0.09436382353305817,0.0019069816917181015,0.0959310457110405,0.09436382353305817,
,,,,,,,,,,,,,,,,,,,,,,,,,,,,,,,,-1.38
10020932000.0,73.55,-1.6299999952316284,12293103616.0,27.16313065496554,64.0,-0.015293097123503685,266240.0,511.83018350601196,1.3046855262821566e-14,0.0,2.3097758293151855,-0.023097746074199677,0.08366227149963379,-0.023097757250070572,1.1175870895385742e-08,0.0,-0.018371712416410446,0.40869033336639404,0.7832770843173316,-0.5130200982093811,0.7272021174430847,-0.5313917398452759,0.8778936862945557,150.7926332950592,0.5130517482757568,,,,,,,
10020932000.0,74.63,-2.069999933242798,12495335936.0,1158.7652853130508,65.0,-0.012778072617948055,270336.0,515.3649804592133,1.3775439122731825e-14,0.0,2.272702693939209,-0.022727029398083687,0.09623335301876068,-0.02272702567279339,-3.725290298461914e-09,0.0,0.025402799248695374,0.43802767992019653,0.7445397005049398,-0.5362107753753662,0.7348412871360779,-0.510807991027832,0.8666422367095947,3.534796953201294,0.49056363105773926,,,,,,,
10020932000.0,74.24,-1.7300000190734863,12495335936.0,1181.0516612291817,66.0,-0.010787643492221832,274432.0,518.8330760002136,1.3102366414052824e-14,0.0,2.2643401622772217,-0.022643418982625008,0.08526884019374847,-0.022643400356173515,-1.862645149230957e-08,0.0,0.08565951138734818,0.4040296971797943,0.7682764300774603,-0.533257246017456,0.7218504548072815,-0.4475977420806885,0.8393211960792542,3.468095541000366,0.4901580810546875,,,,,,,
10020932000.0,77.39,-1.3700000047683716,12495335936.0,1152.5841249582454,67.0,-0.009076502174139023,278528.0,522.3868296146393,1.4486675747882316e-14,0.0,2.232050657272339,-0.022320497781038284,0.08365321904420853,-0.02232050523161888,6.51925802230835e-09,0.0,0.07322922348976135,0.40247172117233276,0.711865392745685,-0.5281630754470825,0.6847920417785645,-0.45493385195732117,0.7497865557670593,3.553753614425659,0.4901156425476074,,,,,,,
10020932000.0,77.39,-1.5199999809265137,12495335936.0,1161.4049607918057,68.0,-0.011914214119315147,282624.0,525.9135925769806,1.4733006481471023e-14,0.0,2.204826593399048,-0.022048259153962135,0.0610664077103138,-0.022048264741897583,5.587935447692871e-09,0.0,0.04346087947487831,0.3468044400215149,0.7960517657062808,-0.44259583950042725,0.6866376996040344,-0.3991349935531616,0.7679354548454285,3.5267629623413086,0.48963284492492676,,,,,,,
10020932000.0,74.62,-1.6299999952316284,12495335936.0,1179.164996845126,69.0,-0.014748717658221722,286720.0,529.387237071991,1.50938289644742e-14,0.0,2.178652763366699,-0.021786540746688843,0.07385966181755066,-0.021786527708172798,-1.30385160446167e-08,0.0,0.01846626028418541,0.3839457035064697,0.7818876015767829,-0.493927925825119,0.7017166018486023,-0.4754616320133209,0.8221094608306885,3.473644495010376,0.4894711971282959,,,,,,,
10020932000.0,74.01,-1.690000057220459,12495335936.0,1169.7846533979302,70.0,-0.010732480324804783,290816.0,532.8887362480164,1.5215259607792575e-14,0.0,2.1990675926208496,-0.021990682929754257,0.08603426069021225,-0.02199067547917366,-7.450580596923828e-09,0.0,0.028354190289974213,0.4138917624950409,0.7373649279051335,-0.41147056221961975,0.6224983334541321,-0.38311636447906494,0.8076261878013611,3.5014991760253906,0.48944854736328125,,,,,,,
10020932000.0,76.08,-1.3200000524520874,12495335936.0,1172.1611639717216,71.0,-0.006994413211941719,294912.0,536.3831362724304,1.50487261540988e-14,0.0,2.2509970664978027,-0.022509975358843803,0.06955516338348389,-0.022509969770908356,-5.587935447692871e-09,0.0,0.009295150637626648,0.3729046583175659,0.6815355293958214,-0.24660269916057587,0.49964261054992676,-0.2373075634241104,0.6607958674430847,3.4944000244140625,0.5200865268707275,,,,,,,
10020932000.0,77.07,-0.7799999713897705,12495335936.0,1165.7085019880299,72.0,-0.007284496445208788,299008.0,539.896879196167,1.403391292065237e-14,0.0,2.246213912963867,-0.0224621444940567,0.06859620660543442,-0.022462138906121254,-5.587935447692871e-09,0.0,0.008975404314696789,0.37033140659332275,0.6578273518103518,-0.24343150854110718,0.5147307515144348,-0.2344561070203781,0.633093535900116,3.5137429237365723,0.4905276298522949,,,,,,,
10020932000.0,78.02,-0.9200000166893005,12495335936.0,1161.729550141488,73.0,-0.007678822614252567,303104.0,543.4226567745209,1.3475331961387838e-14,0.0,2.2762601375579834,-0.02276260405778885,0.097293421626091,-0.02276260033249855,-3.725290298461914e-09,0.0,0.027201585471630096,0.4403342604637146,0.6093061426466215,-0.22390706837177277,0.506716787815094,-0.19670549035072327,0.7044727206230164,3.525777578353882,0.49007511138916016,,,,,,,
10020932000.0,75.56,-1.0800000429153442,12495335936.0,1165.2848542202626,74.0,-0.006069845519959927,307200.0,546.9376771450043,1.3860440573054689e-14,0.0,2.2987220287323,-0.02298722229897976,0.0755312591791153,-0.02298722043633461,-1.862645149230957e-09,0.0,0.014308052137494087,0.38845157623291016,0.6665898049751053,-0.21231918036937714,0.48890453577041626,-0.198011115193367,0.6727403402328491,3.5150203704833984,0.49004340171813965,,,,,,,
10020932000.0,74.0,-1.1799999475479126,12495335936.0,1173.111157771883,75.0,-0.009454920887947083,311296.0,550.429247379303,1.4143200499638908e-14,0.0,2.253161668777466,-0.022531608119606972,0.08019188046455383,-0.02253161557018757,7.450580596923828e-09,0.0,-0.00641923863440752,0.40047687292099,0.7123001411813721,-0.2205638885498047,0.5642210245132446,-0.22698314487934113,0.7466337084770203,3.491570234298706,0.48958706855773926,,,,,,,
10020932000.0,74.23,-1.0,12495335936.0,1149.2813581264243,76.0,-0.005146529525518417,315392.0,553.9932136535645,1.5822412824384458e-14,0.0,2.2268755435943604,-0.022268757224082947,0.05470765009522438,-0.022268755361437798,-1.862645149230957e-09,0.0,0.06806059181690216,0.3237416446208954,0.790405513255965,-0.23951713740825653,0.6392334699630737,-0.17145654559135437,0.7071452140808105,3.5639662742614746,0.489670991897583,,,,,,,
10020932000.0,73.83,-1.340000033378601,12495335936.0,1129.7129582679672,77.0,-0.012728417292237282,319488.0,557.6189134120941,1.4363510381087963e-14,0.0,2.2319140434265137,-0.02231915481388569,0.09560892730951309,-0.022319139912724495,-1.4901161193847656e-08,0.0,-0.04512722045183182,0.4350029528141022,0.6961466233187983,-0.2496601790189743,0.591114342212677,-0.2947874069213867,0.7891511917114258,3.625699758529663,0.48992037773132324,,,,,,,
10020932000.0,74.57,-0.8799999952316284,12495335936.0,1193.1534406313788,78.0,-0.0019017353188246489,323584.0,561.051833152771,1.6823348270023075e-14,0.0,2.1635193824768066,-0.021635176613926888,0.07173360139131546,-0.02163519337773323,1.6763806343078613e-08,0.0,0.08965394645929337,0.36805224418640137,0.6204998740226448,-0.2267119586467743,0.5535460710525513,-0.13705798983573914,0.597452700138092,3.43291974067688,0.48956894874572754,,,,,,,
10020932000.0,77.3,-0.38999998569488525,12495335936.0,1171.4117967930074,79.0,-0.003539131488651037,327680.0,564.5484685897827,1.4883927423881005e-14,0.0,2.253666400909424,-0.022536659613251686,0.0717134028673172,-0.022536663338541985,3.725290298461914e-09,0.0,0.0683090090751648,0.37255144119262695,0.6557079507774248,-0.19874534010887146,0.5419436693191528,-0.13043633103370667,0.6349254846572876,3.4966354370117188,0.4911069869995117,,,,,,,
10020932000.0,77.87,-0.8299999833106995,12495335936.0,1169.0402299883012,80.0,-0.009136203676462173,331776.0,568.0521974563599,1.5746084991441478e-14,0.0,2.2629122734069824,-0.02262912131845951,0.08807159960269928,-0.02262912131845951,0.0,0.0,-0.03778086230158806,0.4180412292480469,0.6772087850132007,-0.22278450429439545,0.5527046918869019,-0.2605654001235962,0.7357974052429199,3.5037288665771484,0.4893615245819092,,,,,,,
10020932000.0,73.95,-1.2599999904632568,12495335936.0,1190.2719801884025,81.0,-0.010657090693712234,335872.0,571.4934277534485,1.5789453078340898e-14,0.0,2.245293617248535,-0.022452935576438904,0.08748054504394531,-0.022452935576438904,0.0,0.0,-0.0029069874435663223,0.41832444071769714,0.6637785811328469,-0.23528580367565155,0.5834152698516846,-0.23819279670715332,0.7214404344558716,3.441230297088623,0.489546537399292,,,,,,,
10020932000.0,71.79,-0.6600000262260437,12495335936.0,1182.0758224159063,82.0,-0.001507103443145752,339968.0,574.9585185050964,1.665854953980528e-14,0.0,2.229865074157715,-0.022298647090792656,0.08828167617321014,-0.022298650816082954,3.725290298461914e-09,0.0,0.08630099892616272,0.41128677129745483,0.511298688143506,-0.22292020916938782,0.5264327526092529,-0.1366192251443863,0.5883326530456543,3.465090751647949,0.4895970821380615,,,,,,,
10020932000.0,72.16,-0.23999999463558197,12495335936.0,1189.0454158593427,83.0,-0.0020615519024431705,344064.0,578.4032986164093,1.8622256514611024e-14,0.0,2.2342400550842285,-0.022342408075928688,0.07964609563350677,-0.02234240062534809,-7.450580596923828e-09,0.0,0.059314414858818054,0.3947303295135498,0.5504855794904724,-0.12106318771839142,0.5336336493492126,-0.061748772859573364,0.5887470245361328,3.444780111312866,0.48953771591186523,,,,,,,
10020932000.0,72.23,-0.029999999329447746,12495335936.0,1195.9490560806223,84.0,0.0012410711497068405,348160.0,581.8281936645508,1.8273577095939686e-14,0.0,2.215054988861084,-0.02215055748820305,0.06463688611984253,-0.022150550037622452,-7.450580596923828e-09,0.0,0.05669668689370155,0.3550916016101837,0.501113391537346,-0.01667904481291771,0.44104281067848206,0.040017642080783844,0.5027353763580322,3.4248950481414795,0.5098049640655518,,,,,,,
10020932000.0,76.73,0.029999999329447746,12495335936.0,1215.1480737103966,85.0,-0.0006913004908710718,352256.0,585.198976278305,1.959717110810999e-14,0.0,2.2032103538513184,-0.022032102569937706,0.0665593072772026,-0.022032102569937706,0.0,0.0,0.04778613522648811,0.36175552010536194,0.6257845739346046,-0.024322234094142914,0.4802229702472687,0.02346390299499035,0.591363251209259,3.3707826137542725,0.49044132232666016,,,,,,,
10020932000.0,75.92,0.07000000029802322,12495335936.0,1171.6356433644885,86.0,0.002775000175461173,356352.0,588.6949436664581,1.9637069748057456e-14,0.0,2.201476573944092,-0.022014770656824112,0.041986823081970215,-0.022014765068888664,-6.05359673500061e-09,0.0,0.059150680899620056,0.28371551632881165,0.5191839861231533,0.05729558318853378,0.38589903712272644,0.11644627153873444,0.40916043519973755,3.495967388153076,0.49028825759887695,,,,,,,
10020932000.0,76.24,0.25999999046325684,12495335936.0,1167.876541865396,87.0,0.0016706674359738827,360448.0,592.2021636962891,2.024942713507727e-14,0.0,2.2229409217834473,-0.02222941629588604,0.049669623374938965,-0.022229408845305443,-7.450580596923828e-09,0.0,0.030467204749584198,0.31374359130859375,0.49282896917785124,0.08813352137804031,0.3343239426612854,0.11860073357820511,0.4405524432659149,3.5072200298309326,0.49018263816833496,,,,,,,
10020932000.0,80.37,0.17000000178813934,12495335936.0,1186.5885453549988,88.0,-0.00041888735722750425,364544.0,595.6540763378143,2.073861915530273e-14,0.0,2.185879707336426,-0.02185879275202751,0.04908532649278641,-0.02185879647731781,3.725290298461914e-09,0.0,-0.008090137504041195,0.3132557272911072,0.525662899990301,0.07937826961278915,0.28566232323646545,0.07128813117742538,0.4548366963863373,3.4519126415252686,0.490234375,,,,,,,
10020932000.0,79.34,-0.23000000417232513,12495335936.0,1197.6053554977057,89.0,-0.001540559926070273,368640.0,599.0742347240448,1.9730744815760204e-14,0.0,2.2001805305480957,-0.022001806646585464,0.06717284768819809,-0.022001804783940315,-1.862645149230957e-09,0.0,-0.023199139162898064,0.36584174633026123,0.43937361953836296,0.08951833844184875,0.28309401869773865,0.06631919741630554,0.4886033535003662,3.4201583862304688,0.49029040336608887,,,,,,,
10020932000.0,78.73,-0.11999999731779099,12495335936.0,1177.7429285698959,90.0,0.001123721245676279,372736.0,602.5520734786987,2.043851199395874e-14,0.0,2.196026563644409,-0.021960262209177017,0.05067703127861023,-0.021960265934467316,3.725290298461914e-09,0.0,0.013860555365681648,0.3180984854698181,0.3981051430878628,0.10911668837070465,0.28702765703201294,0.12297724187374115,0.4100164771080017,3.4778387546539307,0.48999452590942383,,,,,,,
10020932000.0,80.97,-0.009999999776482582,12495335936.0,1170.3746878863526,91.0,-0.0014057905646041036,376832.0,606.0518074035645,2.4235821682871972e-14,0.0,2.166132926940918,-0.021661316975951195,0.10066888481378555,-0.02166132815182209,1.1175870895385742e-08,0.0,-0.04486401379108429,0.44651278853416443,0.3162857934674479,0.025749407708644867,0.26792699098587036,-0.01911460980772972,0.5400035381317139,3.4997339248657227,0.49047064781188965,,,,,,,
10020932000.0,84.52,-0.03999999910593033,12495335936.0,1169.8854207673403,92.0,-0.0005633339751511812,380928.0,609.5530049800873,2.528532938583794e-14,0.0,2.0740785598754883,-0.02074076607823372,0.07086258381605148,-0.02074078470468521,1.862645149230957e-08,0.0,-0.03563860058784485,0.3748190999031067,0.23930769545834019,0.11339614540338516,0.2245684266090393,0.07775755226612091,0.42975133657455444,3.501197576522827,0.4902796745300293,,,,,,,
10020932000.0,84.81,0.17000000178813934,12495335936.0,1185.7224119875655,93.0,0.0029652665834873915,385024.0,613.0074391365051,2.3434379436970687e-14,0.0,2.1242198944091797,-0.021242190152406693,0.05204044282436371,-0.02124219760298729,6.51925802230835e-09,0.0,0.011087018996477127,0.3224644958972931,0.2534837792928305,0.08180978149175644,0.22484701871871948,0.09289679676294327,0.37321773171424866,3.4544341564178467,0.49006056785583496,,,,,,,
10020932000.0,78.09,0.25999999046325684,12495335936.0,1188.8862773175172,94.0,0.00254871416836977,389120.0,616.45268034935,2.5179511253803355e-14,0.0,2.133343458175659,-0.02133343368768692,0.05223361775279045,-0.02133343368768692,0.0,0.0,0.018863819539546967,0.3227023482322693,0.528239391350347,0.08627140522003174,0.2764955163002014,0.10513521730899811,0.46983063220977783,3.4452412128448486,0.4903573989868164,,,,,,,
10020932000.0,79.61,0.05999999865889549,12495335936.0,1199.1330707225873,95.0,-0.002553245285525918,393216.0,619.8684813976288,2.3678975447083417e-14,0.0,2.172483444213867,-0.021724821999669075,0.075153648853302,-0.02172483317553997,1.1175870895385742e-08,0.0,-0.0424976646900177,0.38540565967559814,0.42525432971865174,0.079063281416893,0.2552510201931,0.036565620452165604,0.5083703994750977,3.4158010482788086,0.4900031089782715,,,,,,,
,,,,,,,,,,,,,,,,,,,,,,,,,,0.01811806671321392,0.12354610115289688,0.09285503625869751,0.01811806671321392,0.12354610115289688,0.09285503625869751,
,,,,,,,,,,,,,,,,,,,,,,,,,,0.004671264439821243,0.08845588564872742,0.08420862257480621,0.004671264439821243,0.08845588564872742,0.08420862257480621,
,,,,,,,,,,,,,,,,,,,,,,,,,,0.0034495461732149124,0.08250349014997482,0.0791993960738182,0.0034495461732149124,0.08250349014997482,0.0791993960738182,
,,,,,,,,,,,,,,,,,,,,,,,,,,0.0032824247609823942,0.07764193415641785,0.07611946761608124,0.0032824247609823942,0.07764193415641785,0.07611946761608124,
,,,,,,,,,,,,,,,,,,,,,,,,,,0.0030325548723340034,0.07734856009483337,0.07498858124017715,0.0030325548723340034,0.07734856009483337,0.07498858124017715,
,,,,,,,,,,,,,,,,,,,,,,,,,,0.0027849862817674875,0.07349786907434464,0.07178963720798492,0.0027849862817674875,0.07349786907434464,0.07178963720798492,
,,,,,,,,,,,,,,,,,,,,,,,,,,,,,,,,-1.96
10021084000.0,85.8,-0.2199999988079071,12293103616.0,27.19814700874726,96.0,-0.0017051708418875933,397312.0,770.4669761657715,1.7758364223574574e-14,0.0,2.139831066131592,-0.02139831893146038,0.0747091993689537,-0.021398309618234634,-9.313225746154785e-09,0.0,0.012471228837966919,0.3863927125930786,0.6125125767924805,-0.107312873005867,0.45539286732673645,-0.09484163671731949,0.6207262277603149,150.5984947681427,0.5070092678070068,,,,,,,
10021084000.0,80.91,-0.23999999463558197,12495335936.0,1184.6322095124208,97.0,0.0002844107220880687,401408.0,773.9245893955231,1.7012433128904547e-14,0.0,2.135512351989746,-0.021355116739869118,0.07818730175495148,-0.021355122327804565,5.587935447692871e-09,0.0,0.016350694000720978,0.3951523005962372,0.5616471285783704,-0.026552939787507057,0.38765043020248413,-0.010202247649431229,0.5968327522277832,3.457613229751587,0.4901087284088135,,,,,,,
10021084000.0,81.49,-0.019999999552965164,12495335936.0,1206.781996754729,98.0,0.0009983135387301445,405504.0,777.3187401294708,1.7272641650301068e-14,0.0,2.1650071144104004,-0.02165006287395954,0.050003089010715485,-0.021650070324540138,7.450580596923828e-09,0.0,0.04125615954399109,0.31357312202453613,0.6237201176669304,-0.07071560621261597,0.4021144211292267,-0.029459454119205475,0.5111911296844482,3.394150733947754,0.489760160446167,,,,,,,
10021084000.0,83.59,0.05000000074505806,12495335936.0,1203.570440897551,99.0,0.0005721070920117199,409600.0,780.7219476699829,1.816255479347717e-14,0.0,2.118788242340088,-0.021187886595726013,0.06076617166399956,-0.021187882870435715,-3.725290298461914e-09,0.0,0.02872527949512005,0.34747183322906494,0.6904519956964223,-0.09926380962133408,0.4742386043071747,-0.07053852826356888,0.6245332956314087,3.403207540512085,0.48928189277648926,,,,,,,
10021084000.0,80.35,0.2199999988079071,12495335936.0,1172.2275470658403,100.0,0.0021478089038282633,413696.0,784.2161498069763,1.873327881707354e-14,0.0,2.1058387756347656,-0.021058395504951477,0.03950652480125427,-0.02105838805437088,-7.450580596923828e-09,0.0,0.056667912751436234,0.27535489201545715,0.6399502528127394,-0.011342796497046947,0.3843258023262024,0.04532511904835701,0.4588930904865265,3.494202136993408,0.4895510673522949,,,,,,,
10021084000.0,74.58,0.3700000047683716,12495335936.0,1188.901580413784,101.0,0.004739144816994667,417792.0,787.6613466739655,1.7891937931224788e-14,0.0,2.177748680114746,-0.021777503192424774,0.03688265383243561,-0.02177748642861843,-1.7695128917694092e-08,0.0,0.05829297751188278,0.26530060172080994,0.68347516535601,0.023543592542409897,0.38183754682540894,0.08183658123016357,0.4715571701526642,3.4451968669891357,0.4893982410430908,,,,,,,
10021084000.0,74.61,0.550000011920929,12495335936.0,1126.851016698905,102.0,0.003598855808377266,421888.0,791.2962548732758,2.0289325775024736e-14,0.0,2.0498862266540527,-0.02049887366592884,0.0376829095184803,-0.020498862490057945,-1.1175870895385742e-08,0.0,0.0709766298532486,0.26522690057754517,0.6873307328944898,0.05608025938272476,0.4563885033130646,0.12705688178539276,0.4743238389492035,3.6349081993103027,0.48972439765930176,,,,,,,
10021084000.0,79.49,0.41999998688697815,12495335936.0,1187.9587901010887,103.0,0.0007217871607281268,425984.0,794.74418592453,1.9160020792163834e-14,0.0,2.081777811050415,-0.020817788317799568,0.05041839927434921,-0.020817777141928673,-1.1175870895385742e-08,0.0,-0.0016996171325445175,0.3175823390483856,0.720469633687872,0.09427033364772797,0.4643093943595886,0.0925707221031189,0.6006782054901123,3.4479310512542725,0.4893219470977783,,,,,,,
10021084000.0,76.1,0.07000000029802322,12495335936.0,1198.9591715701306,104.0,0.0011580893769860268,430080.0,798.1604824066162,1.7862447632133183e-14,0.0,2.1371712684631348,-0.02137170545756817,0.0496932677924633,-0.021371712908148766,7.450580596923828e-09,0.0,-0.004426723346114159,0.3152637183666229,0.7065472017832135,0.023256780579686165,0.4488467574119568,0.018830053508281708,0.5819757580757141,3.4162964820861816,0.5177364349365234,,,,,,,
10021084000.0,77.64,-0.10000000149011612,12495335936.0,1185.0481368425096,105.0,-0.0027501536533236504,434176.0,801.6168820858002,1.9291859776338072e-14,0.0,2.038606643676758,-0.02038605883717537,0.08666887879371643,-0.020386066287755966,7.450580596923828e-09,0.0,-0.018195046111941338,0.41599151492118835,0.6826004288285017,-0.04352681338787079,0.5596803426742554,-0.06172186881303787,0.7383823990821838,3.45639967918396,0.4911191463470459,,,,,,,
10021084000.0,78.52,0.07999999821186066,12495335936.0,1173.1023463113263,106.0,0.004637870937585831,438272.0,805.1084785461426,1.9649212812389294e-14,0.0,2.081739902496338,-0.020817413926124573,0.05030027776956558,-0.02081739902496338,-1.4901161193847656e-08,0.0,0.019803419709205627,0.31659573316574097,0.6320927065195847,0.16985481977462769,0.44320639967918396,0.1896582394838333,0.5219583511352539,3.4915964603424072,0.4902780055999756,,,,,,,
10021084000.0,76.35,0.5799999833106995,12495335936.0,1215.5456298290094,107.0,0.003922545351088047,442368.0,808.4781587123871,2.153659195425206e-14,0.0,1.9984805583953857,-0.019984813407063484,0.03986786678433418,-0.019984805956482887,-7.450580596923828e-09,0.0,0.04596961289644241,0.2786422073841095,0.7712113335027795,0.08790204674005508,0.522476851940155,0.1338716596364975,0.5825452208518982,3.369680166244507,0.48999738693237305,,,,,,,
10021084000.0,75.81,0.5899999737739563,12495335936.0,1193.576037590567,108.0,0.004661490675061941,446464.0,811.9098629951477,2.0681373280595494e-14,0.0,2.074915885925293,-0.020749162882566452,0.03234235942363739,-0.020749159157276154,-3.725290298461914e-09,0.0,0.02674676850438118,0.2529524862766266,0.732094305011691,0.22973930835723877,0.4723219871520996,0.25648608803749084,0.4887063205242157,3.43170428276062,0.4902615547180176,,,,,,,
10021084000.0,75.13,0.5099999904632568,12495335936.0,1190.905405136557,109.0,0.003650842234492302,450560.0,815.3492629528046,1.9090631853124762e-14,0.0,2.1286542415618896,-0.02128654159605503,0.04228193312883377,-0.02128654159605503,0.0,0.0,0.008809841237962246,0.2907007038593292,0.7104886017864993,0.20385301113128662,0.474621444940567,0.21266284584999084,0.5402729511260986,3.4393999576568604,0.49042463302612305,,,,,,,
10021084000.0,73.28,0.44999998807907104,12495335936.0,1213.1252954014362,110.0,0.0021961801685392857,454656.0,818.7256660461426,2.0077689510955565e-14,0.0,2.0715248584747314,-0.020715244114398956,0.04654480889439583,-0.020715247839689255,3.725290298461914e-09,0.0,-0.027324330061674118,0.3039170205593109,0.7623876714699271,0.19173328578472137,0.5166893601417542,0.16440896689891815,0.6234771609306335,3.3764030933380127,0.49016714096069336,,,,,,,
10021084000.0,70.24,0.17000000178813934,12495335936.0,1186.7137872532016,111.0,0.002495414577424526,458752.0,822.177214384079,2.0866988692525013e-14,0.0,2.0410237312316895,-0.020410234108567238,0.04572928696870804,-0.020410235971212387,1.862645149230957e-09,0.0,0.02063967101275921,0.3017529249191284,0.6957515933623489,0.1229199469089508,0.5020018219947815,0.14355961978435516,0.5470629930496216,3.4515483379364014,0.4902186393737793,,,,,,,
10021084000.0,70.18,0.23000000417232513,12495335936.0,1182.773426802979,112.0,0.0007359742885455489,462848.0,825.6402614116669,2.1611185063719063e-14,0.0,2.025205612182617,-0.02025206759572029,0.04858466237783432,-0.020252056419849396,-1.1175870895385742e-08,0.0,-0.04046188294887543,0.3091205060482025,0.7372486605933064,0.23705324530601501,0.5174757242202759,0.1965913623571396,0.6030527949333191,3.4630470275878906,0.49005603790283203,,,,,,,
10021084000.0,71.7,0.28999999165534973,12495335936.0,1146.655344015241,113.0,0.00295014725998044,466944.0,829.2123897075653,2.1932108906774772e-14,0.0,2.038647174835205,-0.0203864723443985,0.056098733097314835,-0.02038647048175335,-1.862645149230957e-09,0.0,-0.01213175430893898,0.3347800076007843,0.7391010284244779,0.22132204473018646,0.5858326554298401,0.2091902792453766,0.655425488948822,3.5721282958984375,0.48955559730529785,,,,,,,
10021084000.0,71.41,0.5099999904632568,12495335936.0,1177.7287994862377,114.0,0.006064232438802719,471040.0,832.6902701854706,2.142730437526552e-14,0.0,2.08071231842041,-0.02080712281167507,0.027881262823939323,-0.02080712281167507,0.0,0.0,0.012775660492479801,0.235823854804039,0.72854898411901,0.2031930387020111,0.4520462453365326,0.21596869826316833,0.45262858271598816,3.4778804779052734,0.48931074142456055,,,,,,,
10021084000.0,69.61,0.4699999988079071,12495335936.0,1172.5109994722295,115.0,0.00266972160898149,475136.0,836.1836276054382,2.4273985599343462e-14,0.0,1.985184669494629,-0.019851837307214737,0.027630772441625595,-0.019851846620440483,8.381903171539307e-09,0.0,-0.019275089725852013,0.23431476950645447,0.8417140379622347,0.20798686146736145,0.5651063323020935,0.1887117624282837,0.5889500975608826,3.4933574199676514,0.4894988536834717,,,,,,,
10021084000.0,74.85,0.07999999821186066,12495335936.0,1211.3670518062904,116.0,-0.0010375466663390398,479232.0,839.5649313926697,2.1415161310933684e-14,0.0,2.0799334049224854,-0.02079932577908039,0.09315979480743408,-0.020799333229660988,7.450580596923828e-09,0.0,-0.09587286412715912,0.4209171235561371,0.697418843678169,0.18260614573955536,0.5442816615104675,0.08673328161239624,0.7652011513710022,3.3813037872314453,0.489513635635376,,,,,,,
10021084000.0,77.66,0.1899999976158142,12495335936.0,1230.0929410314156,117.0,0.004458712413907051,483328.0,842.8947610855103,2.2462934290423675e-14,0.0,2.061755895614624,-0.020617563277482986,0.03593619540333748,-0.02061755768954754,-5.587935447692871e-09,0.0,-0.006270281039178371,0.2680496275424957,0.617985375391312,0.24166902899742126,0.4218912124633789,0.23539873957633972,0.433685839176178,3.329829692840576,0.5137062072753906,,,,,,,
10021084000.0,76.37,0.800000011920929,12495335936.0,1199.6580029703982,118.0,0.007298372685909271,487424.0,846.3090674877167,2.4457866287797003e-14,0.0,1.952249526977539,-0.019522495567798615,0.027515815570950508,-0.019522495567798615,0.0,0.0,0.01680905744433403,0.23401381075382233,0.7037960670750147,0.22407478094100952,0.41869890689849854,0.24088384211063385,0.4299778342247009,3.414306402206421,0.490436315536499,,,,,,,
10021084000.0,75.11,0.6800000071525574,12495335936.0,1148.8043406143877,119.0,0.003583551850169897,491520.0,849.8745136260986,2.2839369284710642e-14,0.0,2.0097601413726807,-0.02009759284555912,0.043903648853302,-0.020097600296139717,7.450580596923828e-09,0.0,-0.006091515999287367,0.29629653692245483,0.6313748622934305,0.10101325809955597,0.3810819387435913,0.09492174535989761,0.4880160093307495,3.565446138381958,0.49030494689941406,,,,,,,
10021084000.0,78.49,0.3499999940395355,12495335936.0,1205.343654932882,120.0,0.002693593269214034,495616.0,853.2727146148682,2.321060010856968e-14,0.0,2.0081655979156494,-0.0200816560536623,0.05067262426018715,-0.0200816560536623,0.0,0.0,-0.015018336474895477,0.31803208589553833,0.6176682881340793,0.08165319263935089,0.4344044327735901,0.06663486361503601,0.5143405199050903,3.3982009887695312,0.4902982711791992,,,,,,,
10021084000.0,77.22,0.5899999737739563,12495335936.0,1203.6702823525109,121.0,0.005097478628158569,499712.0,856.6756398677826,2.313947644605463e-14,0.0,2.0611534118652344,-0.02061154507100582,0.04090462625026703,-0.020611533895134926,-1.1175870895385742e-08,0.0,0.012225057929754257,0.2857966721057892,0.7248777943509213,0.0852918028831482,0.4382725656032562,0.09751686453819275,0.5448718667030334,3.4029252529144287,0.4903843402862549,,,,,,,
10021084000.0,78.73,0.75,12495335936.0,1203.9359885206143,122.0,0.005559748504310846,503808.0,860.0778141021729,2.256875242245826e-14,0.0,2.0925240516662598,-0.020925248041749,0.03510959446430206,-0.020925240591168404,-7.450580596923828e-09,0.0,0.013408312574028969,0.26468193531036377,0.5932312055555067,0.11512437462806702,0.33002617955207825,0.12853269279003143,0.4150022268295288,3.402174234390259,0.49069643020629883,,,,,,,
10021084000.0,82.9,0.6800000071525574,12495335936.0,1153.7892718808937,123.0,0.005721425171941519,507904.0,863.6278557777405,2.146546829173701e-14,0.0,2.060706377029419,-0.020607059821486473,0.02841869555413723,-0.02060706354677677,3.725290298461914e-09,0.0,0.04207785427570343,0.23469190299510956,0.717310540829536,0.096701979637146,0.39649897813796997,0.13877983391284943,0.44141116738319397,3.550041675567627,0.4896657466888428,,,,,,,
10021084000.0,80.1,0.5899999737739563,12495335936.0,1201.741656173498,124.0,0.004225068725645542,512000.0,867.0362422466278,2.4391946795709885e-14,0.0,2.03033709526062,-0.02030337043106556,0.03228234499692917,-0.02030337043106556,0.0,0.0,0.020356711000204086,0.25331002473831177,0.5519045609585307,0.043010782450437546,0.3279658257961273,0.06336749345064163,0.3784138858318329,3.408386468887329,0.48937034606933594,,,,,,,
10021084000.0,77.2,0.6399999856948853,12495335936.0,1194.5595799123334,125.0,0.006654980592429638,516096.0,870.4651210308075,2.2013640910145682e-14,0.0,2.0881690979003906,-0.020881686359643936,0.022090571001172066,-0.020881690084934235,3.725290298461914e-09,0.0,0.048169489949941635,0.204624205827713,0.551623134504728,0.07978266477584839,0.2775791585445404,0.12795215845108032,0.30558738112449646,3.4288787841796875,0.4893765449523926,,,,,,,
10021084000.0,77.32,0.7900000214576721,12495335936.0,1198.5284904879156,126.0,0.004697936587035656,520192.0,873.8826451301575,2.2299870283681855e-14,0.0,2.0460920333862305,-0.020460931584239006,0.03321531042456627,-0.02046092040836811,-1.1175870895385742e-08,0.0,0.03193771839141846,0.2557862102985382,0.6145004242356091,0.03546687215566635,0.3317215144634247,0.06740459054708481,0.4119695723056793,3.4175240993499756,0.4895789623260498,,,,,,,
10021084000.0,74.35,0.5,12495335936.0,1158.6354801164364,127.0,0.004404909908771515,524288.0,877.4178380966187,2.2332830029725415e-14,0.0,2.058591365814209,-0.020585916936397552,0.03064718283712864,-0.020585913211107254,-3.725290298461914e-09,0.0,0.029779519885778427,0.24580948054790497,0.5226150142219239,0.03211432322859764,0.2640640139579773,0.06189384311437607,0.35576584935188293,3.5351929664611816,0.4896845817565918,,,,,,,
,,,,,,,,,,,,,,,,,,,,,,,,,,0.006930289790034294,0.061266880482435226,0.04683603718876839,0.006930289790034294,0.061266880482435226,0.04683603718876839,
,,,,,,,,,,,,,,,,,,,,,,,,,,0.004125880543142557,0.04520012065768242,0.04199235141277313,0.004125880543142557,0.04520012065768242,0.04199235141277313,
,,,,,,,,,,,,,,,,,,,,,,,,,,0.0030374121852219105,0.040555525571107864,0.03762730211019516,0.0030374121852219105,0.040555525571107864,0.03762730211019516,
,,,,,,,,,,,,,,,,,,,,,,,,,,0.002951083006337285,0.04005098342895508,0.03872198984026909,0.002951083006337285,0.04005098342895508,0.03872198984026909,
,,,,,,,,,,,,,,,,,,,,,,,,,,0.0027076425030827522,0.03773212060332298,0.03654790669679642,0.0027076425030827522,0.03773212060332298,0.03654790669679642,
,,,,,,,,,,,,,,,,,,,,,,,,,,0.0025014698039740324,0.03684195131063461,0.03565577417612076,0.0025014698039740324,0.03684195131063461,0.03565577417612076,
,,,,,,,,,,,,,,,,,,,,,,,,,,,,,,,,-1.23
10021100000.0,74.3,0.49000000953674316,12293103616.0,27.039087081196666,128.0,0.00411099661141634,528384.0,1028.9022424221039,1.961278361939378e-14,0.0,2.083362579345703,-0.020833631977438927,0.024826623499393463,-0.02083362452685833,-7.450580596923828e-09,0.0,0.022721173241734505,0.22169573605060577,0.6444633550298808,0.11679282784461975,0.32384780049324036,0.1395139992237091,0.3718049228191376,151.48440432548523,0.5104315280914307,,,,,,,
10021100000.0,75.79,0.6700000166893005,12495335936.0,1157.6810047022557,129.0,0.0068680099211633205,532480.0,1032.4403500556946,1.8225004838612335e-14,0.0,2.099597454071045,-0.02099597454071045,0.01966983452439308,-0.02099597454071045,0.0,0.0,0.03915795311331749,0.19446220993995667,0.8307982989233345,0.16670112311840057,0.4344458281993866,0.20585907995700836,0.4727514386177063,3.5381076335906982,0.4902682304382324,,,,,,,
10021100000.0,80.52,0.8899999856948853,12495335936.0,1164.148978864843,130.0,0.007341376505792141,536576.0,1035.9588000774384,1.933696258671347e-14,0.0,2.0707550048828125,-0.020707538351416588,0.01678662747144699,-0.020707549527287483,1.1175870895385742e-08,0.0,0.03838708624243736,0.17918573319911957,0.8274270120469692,0.19499458372592926,0.3822382390499115,0.23338168859481812,0.43133729696273804,3.5184500217437744,0.4903707504272461,,,,,,,
10021100000.0,78.6,0.9300000071525574,12495335936.0,1142.1445771918773,131.0,0.007662598043680191,540672.0,1039.5450360774994,1.9807072648703183e-14,0.0,2.074453830718994,-0.020744526758790016,0.020823176950216293,-0.02074453793466091,1.1175870895385742e-08,0.0,0.03253882750868797,0.2014881819486618,0.8165618495693076,0.2667646110057831,0.41912394762039185,0.29930344223976135,0.4704405963420868,3.586236000061035,0.49009060859680176,,,,,,,
10021100000.0,76.32,0.9700000286102295,12495335936.0,1147.0078079913003,132.0,0.008138982579112053,544768.0,1043.1160666942596,2.3054474995731766e-14,0.0,1.982454776763916,-0.0198245570063591,0.020252026617527008,-0.019824547693133354,-9.313225746154785e-09,0.0,0.010678622871637344,0.2009972333908081,0.8189507279714067,0.2873952388763428,0.409261018037796,0.2980738878250122,0.47238025069236755,3.571030616760254,0.49019956588745117,,,,,,,
10021100000.0,77.17,1.0299999713897705,12495335936.0,1152.031663811265,133.0,0.008000276982784271,548864.0,1046.6715245246887,2.2207929939455084e-14,0.0,1.9362444877624512,-0.019362451508641243,0.019143620505928993,-0.019362444058060646,-7.450580596923828e-09,0.0,0.01695753075182438,0.1949588805437088,0.8032319195536733,0.26732951402664185,0.3851381242275238,0.28428706526756287,0.4395069479942322,3.555457830429077,0.49026966094970703,,,,,,,
10021100000.0,76.43,0.9200000166893005,12495335936.0,1161.6046564068292,134.0,0.007245682179927826,552960.0,1050.1976811885834,2.2743959493531918e-14,0.0,1.9657623767852783,-0.019657637923955917,0.026711463928222656,-0.019657623022794724,-1.4901161193847656e-08,0.0,0.013483438640832901,0.23076854646205902,0.7463246489476725,0.2513880431652069,0.4107034206390381,0.2648714780807495,0.4581814408302307,3.5261566638946533,0.4904806613922119,,,,,,,
10021100000.0,73.74,0.8999999761581421,12495335936.0,1157.9846265922747,135.0,0.007415081840008497,557056.0,1053.7348611354828,2.076464000744238e-14,0.0,2.0567197799682617,-0.020567210391163826,0.02981337532401085,-0.02056719735264778,-1.30385160446167e-08,0.0,-0.022759294137358665,0.24315261840820312,0.7741839310091974,0.3930567502975464,0.45394426584243774,0.3702974319458008,0.5116836428642273,3.537179946899414,0.504896879196167,,,,,,,
10021100000.0,74.69,0.800000011920929,12495335936.0,1158.9783038688852,136.0,0.0063482616096735,561152.0,1057.269008398056,2.4185514702068645e-14,0.0,1.9549710750579834,-0.019549714401364326,0.011554720811545849,-0.019549710676074028,-3.725290298461914e-09,0.0,-0.005669462960213423,0.15193068981170654,0.9121418079339699,0.3429574966430664,0.48607712984085083,0.3372880220413208,0.5125714540481567,3.534147262573242,0.48993873596191406,,,,,,,
10021100000.0,77.11,0.8399999737739563,12495335936.0,1133.9673995751352,137.0,0.008998902514576912,565248.0,1060.881105184555,2.0088097851811426e-14,0.0,2.067052125930786,-0.020670520141720772,0.00916159339249134,-0.020670520141720772,0.0,0.0,0.005056103225797415,0.13528521358966827,0.8852051743307385,0.3428722620010376,0.3889879584312439,0.34792834520339966,0.39929071068763733,3.6120967864990234,0.4907660484313965,,,,,,,
10021100000.0,77.34,0.8399999737739563,12495335936.0,1185.6782220102064,138.0,0.005907299462705851,569344.0,1064.3356680870056,2.082535532910157e-14,0.0,2.002242088317871,-0.020022420212626457,0.019991684705018997,-0.020022420212626457,0.0,0.0,-0.002101406455039978,0.19997179508209229,0.8167444349231611,0.2414153814315796,0.41732466220855713,0.2393139749765396,0.467132568359375,3.4545629024505615,0.48932957649230957,,,,,,,
10021100000.0,73.21,0.6600000262260437,12495335936.0,1159.6553235132235,139.0,0.005918701179325581,573440.0,1067.8677520751953,2.2792531750859268e-14,0.0,1.9717226028442383,-0.019717225804924965,0.03697984665632248,-0.019717225804924965,0.0,0.0,-0.020246978849172592,0.2712336778640747,0.779100258502083,0.3430463671684265,0.4688302278518677,0.3227993845939636,0.577093243598938,3.5320839881896973,0.4895305633544922,,,,,,,
10021100000.0,72.53,0.7300000190734863,12495335936.0,1136.7168617218401,140.0,0.007181419525295496,577536.0,1071.4711120128632,2.4955731925402347e-14,0.0,1.918541431427002,-0.01918541081249714,0.015535317361354828,-0.019185414537787437,3.725290298461914e-09,0.0,-0.006173613481223583,0.17618200182914734,0.881401358150468,0.41129204630851746,0.4684332013130188,0.4051184356212616,0.5115895867347717,3.6033599376678467,0.4895932674407959,,,,,,,
10021100000.0,71.77,0.7300000190734863,12495335936.0,1163.5810436981515,141.0,0.006728231906890869,581632.0,1074.9912793636322,2.4544602461595844e-14,0.0,1.9080121517181396,-0.01908012479543686,0.015234979800879955,-0.01908012107014656,-3.725290298461914e-09,0.0,-0.024075355380773544,0.17290933430194855,0.8739735661174335,0.3704807162284851,0.46034157276153564,0.3464053273200989,0.48706576228141785,3.520167350769043,0.4896245002746582,,,,,,,
10021100000.0,69.98,0.8500000238418579,12495335936.0,1216.798547763248,142.0,0.006742833647876978,585728.0,1078.357489824295,2.4379803731378047e-14,0.0,1.9621837139129639,-0.019621828570961952,0.011178296059370041,-0.01962183602154255,7.2177499532699585e-09,0.0,-0.008860958740115166,0.14927665889263153,0.8683509654393736,0.31768882274627686,0.40354469418525696,0.30882787704467773,0.41141775250434875,3.366210460662842,0.48941636085510254,,,,,,,
10021100000.0,72.1,0.8500000238418579,12495335936.0,1208.0707605763428,143.0,0.008955045603215694,589824.0,1081.748019695282,2.5153490401663703e-14,0.0,1.8665961027145386,-0.018665945157408714,0.016977885738015175,-0.018665960058569908,1.4901161193847656e-08,0.0,-0.010689983144402504,0.18398302793502808,0.8618764336201159,0.3885807991027832,0.45067501068115234,0.37789082527160645,0.49504414200782776,3.3905298709869385,0.4894742965698242,,,,,,,
10021100000.0,75.27,0.8999999761581421,12495335936.0,1163.4774196637443,144.0,0.006770853418856859,593920.0,1085.2685005664825,3.107236690169657e-14,0.0,1.7658729553222656,-0.01765875145792961,0.009189726784825325,-0.01765872910618782,-2.2351741790771484e-08,0.0,-0.022352002561092377,0.13373185694217682,0.8966644688450731,0.35005682706832886,0.41815829277038574,0.3277047872543335,0.41601598262786865,3.5204808712005615,0.48936915397644043,,,,,,,
10021100000.0,76.27,0.9800000190734863,12495335936.0,1171.0686037388593,145.0,0.010095927864313126,598016.0,1088.7661607265472,2.813201060991588e-14,0.0,1.7880001068115234,-0.017879996448755264,0.011345463804900646,-0.017880000174045563,3.725290298461914e-09,0.0,-0.00029973452910780907,0.1506531834602356,0.8936589146583427,0.3823397159576416,0.45491525530815125,0.38203999400138855,0.4619848430156708,3.4976601600646973,0.4896106719970703,,,,,,,
10021100000.0,75.77,1.0499999523162842,12495335936.0,1160.9015113525613,146.0,0.007587967440485954,602112.0,1092.2944531440735,2.84893636459671e-14,0.0,1.7808539867401123,-0.01780853606760502,0.007195773534476757,-0.017808539792895317,3.725290298461914e-09,0.0,0.004683179315179586,0.11988796293735504,0.9160812293382199,0.30714839696884155,0.4158989191055298,0.31183159351348877,0.41385290026664734,3.528292417526245,0.4893765449523926,,,,,,,
10021100000.0,73.83,0.7599999904632568,12495335936.0,1189.0543038591197,147.0,0.006020327098667622,606208.0,1095.7392075061798,3.009398286124565e-14,0.0,1.7587130069732666,-0.017587125301361084,0.016064217314124107,-0.017587129026651382,3.725290298461914e-09,0.0,-0.014921071007847786,0.17864374816417694,0.8019244057329732,0.23848465085029602,0.37426838278770447,0.2235635668039322,0.401395320892334,3.4447543621063232,0.48934125900268555,,,,,,,
10021100000.0,71.46,0.6499999761581421,12495335936.0,1179.8707560556743,148.0,0.005716322921216488,610304.0,1099.2107741832733,3.236994006172722e-14,0.0,1.6881730556488037,-0.016881730407476425,0.006403781473636627,-0.016881730407476425,0.0,0.0,0.002995502669364214,0.11314466595649719,0.9033739459579591,0.23636043071746826,0.35728827118873596,0.2393559217453003,0.36398789286613464,3.471566677093506,0.5083746910095215,,,,,,,
10021100000.0,71.72,0.75,12495335936.0,1149.0522911059866,149.0,0.006843751296401024,614400.0,1102.7754509449005,3.7230635241414234e-14,0.0,1.5860745906829834,-0.015860743820667267,0.006850504782050848,-0.015860745683312416,1.862645149230957e-09,0.0,0.014440608210861683,0.11617130786180496,0.913122450634533,0.2321472316980362,0.37983575463294983,0.2465878427028656,0.39413508772850037,3.5646767616271973,0.4934513568878174,,,,,,,
10021100000.0,72.89,0.8500000238418579,12495335936.0,1121.9423611110658,150.0,0.008930675685405731,618496.0,1106.4262623786926,3.027265937927126e-14,0.0,1.703230381011963,-0.017032315954566002,0.010400019586086273,-0.017032302916049957,-1.30385160446167e-08,0.0,0.016542378813028336,0.14328782260417938,0.8809361914116965,0.31478649377822876,0.3982054889202118,0.3313288986682892,0.41525933146476746,3.6508114337921143,0.4898552894592285,,,,,,,
10021100000.0,75.63,1.0099999904632568,12495335936.0,1137.56204057671,151.0,0.00862882100045681,622592.0,1110.0269451141357,3.268912918130695e-14,0.0,1.6991186141967773,-0.016991188749670982,0.009137092158198357,-0.016991185024380684,-3.725290298461914e-09,0.0,0.020080845803022385,0.13369858264923096,0.8790629087421484,0.25925958156585693,0.3667672276496887,0.2793404161930084,0.3844563364982605,3.6006827354431152,0.4894075393676758,,,,,,,
10021100000.0,76.42,1.0199999809265137,12495335936.0,1137.974661522823,152.0,0.010563825257122517,626688.0,1113.6263222694397,2.6634944250147896e-14,0.0,1.803882122039795,-0.018038837239146233,0.008227449841797352,-0.01803882047533989,-1.6763806343078613e-08,0.0,0.031229384243488312,0.12443232536315918,0.8963461094820515,0.27043116092681885,0.3464393615722656,0.30166053771972656,0.38649189472198486,3.599377155303955,0.4895765781402588,,,,,,,
10021100000.0,76.97,1.090000033378601,12495335936.0,1155.3715693844915,153.0,0.00801672600209713,630784.0,1117.1715021133423,2.936019483090746e-14,0.0,1.7842638492584229,-0.017842629924416542,0.008647928945720196,-0.01784263737499714,7.450580596923828e-09,0.0,0.02477950230240822,0.12917393445968628,0.874823568096257,0.2158261239528656,0.3405717611312866,0.24060562252998352,0.36510151624679565,3.545179843902588,0.4896121025085449,,,,,,,
10021100000.0,78.48,1.1699999570846558,12495335936.0,1160.9915743672464,154.0,0.010116866789758205,634880.0,1120.6995208263397,2.7302812788398967e-14,0.0,1.890122652053833,-0.018901202827692032,0.007564081810414791,-0.018901225179433823,2.2351741790771484e-08,0.0,0.03357600420713425,0.11833948642015457,0.9035981591388274,0.2713363766670227,0.353811115026474,0.30491238832473755,0.38114216923713684,3.5280187129974365,0.4899282455444336,,,,,,,
10021100000.0,79.78,1.0800000429153442,12495335936.0,1167.0417815687376,155.0,0.007884470745921135,638976.0,1124.20924949646,2.938795040652309e-14,0.0,1.8186153173446655,-0.018186155706644058,0.007941300049424171,-0.01818615198135376,-3.725290298461914e-09,0.0,0.020959902554750443,0.12428617477416992,0.8993002959743617,0.24708446860313416,0.3695075511932373,0.2680443823337555,0.39165955781936646,3.5097286701202393,0.4895308017730713,,,,,,,
10021100000.0,80.61,1.1299999952316284,12495335936.0,1174.2630731573515,156.0,0.010957479476928711,643072.0,1127.6973946094513,2.770353391134961e-14,0.0,1.8544888496398926,-0.018544895574450493,0.009457715786993504,-0.018544888123869896,-7.450580596923828e-09,0.0,0.02952698990702629,0.13434281945228577,0.8997877064066347,0.31492817401885986,0.39887335896492004,0.34445518255233765,0.4243791103363037,3.488145112991333,0.49277377128601074,,,,,,,
10021100000.0,78.29,1.25,12495335936.0,1177.2183614845756,157.0,0.009036939591169357,647168.0,1131.1767830848694,2.9302948956200225e-14,0.0,1.8207261562347412,-0.018207265064120293,0.01761300303041935,-0.018207261338829994,-3.725290298461914e-09,0.0,0.0006558774039149284,0.18770769238471985,0.7977741880078817,0.2713225185871124,0.38820868730545044,0.27197837829589844,0.4174109101295471,3.479388475418091,0.489593505859375,,,,,,,
10021100000.0,72.65,0.8999999761581421,12495335936.0,1129.6443949682441,158.0,0.007115565240383148,651264.0,1134.8027029037476,2.7413835090861483e-14,0.0,1.8794095516204834,-0.018794087693095207,0.0048991236835718155,-0.018794095143675804,7.450580596923828e-09,0.0,0.0035936632193624973,0.09893292188644409,0.9331320989205802,0.25279831886291504,0.3749055862426758,0.2563919723033905,0.38258853554725647,3.625919818878174,0.48983120918273926,,,,,,,
10021100000.0,70.79,0.8999999761581421,12495335936.0,1167.4483024064773,159.0,0.010206744074821472,655360.0,1138.3112094402313,1.9619722513297688e-14,0.0,2.0242936611175537,-0.020242933183908463,0.008280731737613678,-0.02024293690919876,3.725290298461914e-09,0.0,0.015541561879217625,0.12776505947113037,0.9170629922104974,0.35111379623413086,0.415444016456604,0.3666553795337677,0.4436473548412323,3.5085065364837646,0.48949456214904785,,,,,,,
,,,,,,,,,,,,,,,,,,,,,,,,,,0.001508582616224885,0.017401227727532387,0.014659126289188862,0.001508582616224885,0.017401227727532387,0.014659126289188862,
,,,,,,,,,,,,,,,,,,,,,,,,,,0.0012665691319853067,0.01403797697275877,0.013327036052942276,0.0012665691319853067,0.01403797697275877,0.013327036052942276,
,,,,,,,,,,,,,,,,,,,,,,,,,,0.0008570191566832364,0.012765677645802498,0.012056886218488216,0.0008570191566832364,0.012765677645802498,0.012056886218488216,
,,,,,,,,,,,,,,,,,,,,,,,,,,0.0010597417131066322,0.01273809839040041,0.012179737910628319,0.0010597417131066322,0.01273809839040041,0.012179737910628319,
,,,,,,,,,,,,,,,,,,,,,,,,,,0.0010503374505788088,0.012119632214307785,0.011677633970975876,0.0010503374505788088,0.012119632214307785,0.011677633970975876,
,,,,,,,,,,,,,,,,,,,,,,,,,,0.0009375321678817272,0.011742057278752327,0.01124916784465313,0.0009375321678817272,0.011742057278752327,0.01124916784465313,
,,,,,,,,,,,,,,,,,,,,,,,,,,,,,,,,-1.84
10021100000.0,75.78,1.0800000429153442,12293103616.0,27.007802921800568,160.0,0.008923067711293697,659456.0,1289.9710838794708,2.1451590503929197e-14,0.0,1.9534646272659302,-0.0195346400141716,0.022857308387756348,-0.019534645602107048,5.587935447692871e-09,0.0,0.00333503820002079,0.21380984783172607,0.7769966014992362,0.3033236265182495,0.37012720108032227,0.30665865540504456,0.452764093875885,151.6598744392395,0.5174744129180908,,,,,,,
10021100000.0,79.54,1.159999966621399,12495335936.0,1162.3983847005015,161.0,0.010563252493739128,663552.0,1293.4948327541351,2.2081295125708778e-14,0.0,1.9669811725616455,-0.01966981031000614,0.007220400497317314,-0.01966981217265129,1.862645149230957e-09,0.0,0.028777210041880608,0.1166876032948494,0.9363535923874191,0.341884970664978,0.43517938256263733,0.37066221237182617,0.4625277519226074,3.5237488746643066,0.4895460605621338,,,,,,,
10021100000.0,78.91,1.059999942779541,12495335936.0,1186.6944418829241,162.0,0.007320374250411987,667648.0,1296.9464373588562,2.4718074809193524e-14,0.0,1.8996864557266235,-0.018996858969330788,0.03915022313594818,-0.018996864557266235,5.587935447692871e-09,0.0,-0.02368079498410225,0.2788523733615875,0.7472390895443741,0.2745133638381958,0.3969109356403351,0.25083258748054504,0.5546504855155945,3.4516046047210693,0.4909696578979492,,,,,,,
10021100000.0,74.05,0.8199999928474426,12495335936.0,1136.6833935511054,163.0,0.007497707381844521,671744.0,1300.5499033927917,2.309090418872728e-14,0.0,1.8846737146377563,-0.01884673349559307,0.0046374318189918995,-0.01884673722088337,3.725290298461914e-09,0.0,0.0004028455587103963,0.09631700813770294,0.9407181969495483,0.26408326625823975,0.3980658948421478,0.2644861042499542,0.3955872654914856,3.603466033935547,0.48923277854919434,,,,,,,
10021100000.0,72.16,0.8799999952316284,12495335936.0,1181.7639897536567,164.0,0.009144586510956287,675840.0,1304.0159084796906,2.0925969290708224e-14,0.0,1.9855496883392334,-0.019855499267578125,0.015138761140406132,-0.019855495542287827,-4.6566128730773926e-09,0.0,-0.0206952802836895,0.17279037833213806,0.8995031722774399,0.44634169340133667,0.5079036951065063,0.42564642429351807,0.5450588464736938,3.4660050868988037,0.48963165283203125,,,,,,,
10021100000.0,77.27,1.1399999856948853,12495335936.0,1162.8977808451677,165.0,0.01013810746371746,679936.0,1307.5381441116333,2.32539681954691e-14,0.0,1.9050300121307373,-0.01905030384659767,0.011204054579138756,-0.019050300121307373,-3.725290298461914e-09,0.0,-0.0009851688519120216,0.14970842003822327,0.9129991629389571,0.3623669147491455,0.4961298406124115,0.36138176918029785,0.5075566172599792,3.522235631942749,0.4893810749053955,,,,,,,
10021100000.0,79.24,1.1799999475479126,12495335936.0,1186.2046240652094,166.0,0.010151838883757591,684032.0,1310.9911739826202,2.5179511253803355e-14,0.0,1.8990932703018188,-0.018990937620401382,0.009274580515921116,-0.018990932032465935,-5.587935447692871e-09,0.0,-0.011685638688504696,0.13570962846279144,0.935796751302658,0.43977755308151245,0.5262777209281921,0.4280919134616852,0.5355896353721619,3.4530298709869385,0.48935818672180176,,,,,,,
10021100000.0,79.4,1.1100000143051147,12495335936.0,1165.1743674336847,167.0,0.00934951938688755,688128.0,1314.5065276622772,2.168404344971009e-14,0.0,2.0007166862487793,-0.020007163286209106,0.004658997990190983,-0.020007167011499405,3.725290298461914e-09,0.0,0.002735181711614132,0.09650278836488724,0.9582979914213037,0.3926100730895996,0.4570560157299042,0.3953453004360199,0.4725648760795593,3.5153536796569824,0.5062499046325684,,,,,,,
10021100000.0,77.32,1.090000033378601,12495335936.0,1149.8471142800788,168.0,0.00887251179665327,692224.0,1318.0687403678894,2.373622132179065e-14,0.0,1.9445583820343018,-0.01944558694958687,0.018917396664619446,-0.01944558322429657,-3.725290298461914e-09,0.0,0.0032979468815028667,0.19450746476650238,0.862247442846136,0.40251392126083374,0.4959140717983246,0.4058118462562561,0.5240665674209595,3.5622127056121826,0.4901578426361084,,,,,,,
10021100000.0,78.55,0.9700000286102295,12495335936.0,1190.7838990096664,169.0,0.007900360971689224,696320.0,1321.5084912776947,2.5729418595688003e-14,0.0,1.8921715021133423,-0.01892171800136566,0.013046814128756523,-0.018921714276075363,-3.725290298461914e-09,0.0,-0.008901536464691162,0.16130946576595306,0.8917730959372954,0.3663722276687622,0.48364588618278503,0.35747072100639343,0.49033430218696594,3.439750909805298,0.49031877517700195,,,,,,,
10021100000.0,77.85,1.0199999809265137,12495335936.0,1202.5621617724416,170.0,0.011704573407769203,700416.0,1324.9145522117615,2.6685251230951224e-14,0.0,1.8523156642913818,-0.01852314919233322,0.007473177742213011,-0.01852315664291382,7.450580596923828e-09,0.0,-0.005666390061378479,0.12213881313800812,0.9522522461185264,0.48739171028137207,0.5439032912254333,0.4817253649234772,0.5589555501937866,3.4060609340667725,0.4902229309082031,,,,,,,
10021100000.0,78.7,1.2599999904632568,12495335936.0,1158.8275802524563,171.0,0.01089636329561472,704512.0,1328.4491591453552,2.7875271535471313e-14,0.0,1.7916109561920166,-0.017916105687618256,0.008790120482444763,-0.017916109412908554,3.725290298461914e-09,0.0,0.014583449810743332,0.13180215656757355,0.9476997345896494,0.4875917136669159,0.5760926604270935,0.5021750926971436,0.5763289928436279,3.53460693359375,0.4917013645172119,,,,,,,
10021100000.0,80.66,1.309999942779541,12495335936.0,1149.017170446759,172.0,0.010582514107227325,708608.0,1332.013944864273,2.5715540807880188e-14,0.0,1.8034757375717163,-0.01803475059568882,0.008104732260107994,-0.018034756183624268,5.587935447692871e-09,0.0,0.02188057079911232,0.1254374086856842,0.9278501884439815,0.3658406138420105,0.4522903859615326,0.3877211809158325,0.466992050409317,3.5647857189178467,0.4902501106262207,,,,,,,
10021100000.0,77.97,1.3300000429153442,12495335936.0,1186.51380624303,173.0,0.01291608065366745,712704.0,1335.4660749435425,2.8782531913407183e-14,0.0,1.7879294157028198,-0.017879288643598557,0.005896338261663914,-0.017879294231534004,5.122274160385132e-09,0.0,-0.0018787188455462456,0.10859108716249466,0.9663938809799297,0.5459577441215515,0.5906354188919067,0.544079065322876,0.5923590660095215,3.452130079269409,0.4899275302886963,,,,,,,
10021100000.0,78.63,1.440000057220459,12495335936.0,1219.6497423239573,174.0,0.011110998690128326,716800.0,1338.8244161605835,3.214095656289828e-14,0.0,1.747619867324829,-0.017476210370659828,0.007674479391425848,-0.017476199194788933,-1.1175870895385742e-08,0.0,0.016854066401720047,0.12275413423776627,0.9503594790158184,0.44263535737991333,0.5453354716300964,0.4594894051551819,0.5509573817253113,3.3583412170410156,0.4895796775817871,,,,,,,
10021100000.0,82.18,1.159999966621399,12495335936.0,1206.54596086702,175.0,0.0078057460486888885,720896.0,1342.219230890274,3.3481897809828354e-14,0.0,1.6632879972457886,-0.016632871702313423,0.019625959917902946,-0.01663287915289402,7.450580596923828e-09,0.0,-0.016152027994394302,0.19748558104038239,0.8493242934594104,0.3523399233818054,0.4735548496246338,0.3361878991127014,0.5087608695030212,3.3948147296905518,0.48940420150756836,,,,,,,
10021100000.0,79.44,0.9200000166893005,12495335936.0,1130.0938106040444,176.0,0.008484527468681335,724992.0,1345.8437087535858,3.203340370738772e-14,0.0,1.675055980682373,-0.016750570386648178,0.006070556119084358,-0.016750559210777283,-1.1175870895385742e-08,0.0,0.00515951681882143,0.11007929593324661,0.9366639648351262,0.3098629415035248,0.4379628598690033,0.31502246856689453,0.4374014139175415,3.6244778633117676,0.48934364318847656,,,,,,,
10021100000.0,76.27,0.8799999952316284,12495335936.0,1173.17348260839,177.0,0.007999269291758537,729088.0,1349.33509349823,2.8296809340133677e-14,0.0,1.8094016313552856,-0.018094031140208244,0.02800789102911949,-0.01809401623904705,-1.4901161193847656e-08,0.0,-0.03696006163954735,0.23380136489868164,0.8595122821371486,0.48856204748153687,0.6091223359107971,0.4516020119190216,0.6237749457359314,3.491384744644165,0.4892740249633789,,,,,,,
10021100000.0,78.91,1.100000023841858,12495335936.0,1178.6559819339066,178.0,0.011348115280270576,733184.0,1352.81023812294,3.2368205338251244e-14,0.0,1.742798924446106,-0.017427992075681686,0.013484837487339973,-0.017427988350391388,-2.7939677238464355e-09,0.0,0.006291868165135384,0.16412393748760223,0.9183926145362938,0.47252708673477173,0.5614140629768372,0.47881895303726196,0.5745227336883545,3.475144624710083,0.4892537593841553,,,,,,,
10021100000.0,77.48,1.190000057220459,12495335936.0,1203.0617934496638,179.0,0.010028357617557049,737280.0,1356.214884519577,3.336567133693791e-14,0.0,1.7810330390930176,-0.017810311168432236,0.005257981829345226,-0.017810329794883728,1.862645149230957e-08,0.0,0.014169805683195591,0.10157608240842819,0.9464263147550593,0.3182929456233978,0.4192078411579132,0.33246275782585144,0.438849538564682,3.404646396636963,0.4893045425415039,,,,,,,
10021100000.0,79.49,1.2300000190734863,12495335936.0,1202.3748963486157,180.0,0.01020976435393095,741376.0,1359.6214759349823,3.655409308578328e-14,0.0,1.6533969640731812,-0.01653396710753441,0.006741822697222233,-0.016533968970179558,1.862645149230957e-09,0.0,0.013876939192414284,0.11530099809169769,0.9441674324834491,0.38630059361457825,0.49391093850135803,0.400177538394928,0.4879656732082367,3.4065914154052734,0.5146393775939941,,,,,,,
10021100000.0,78.51,1.2300000190734863,12495335936.0,1212.9606741458006,181.0,0.012237290851771832,745472.0,1362.9983372688293,3.598336906218691e-14,0.0,1.6748669147491455,-0.01674867607653141,0.005343583412468433,-0.016748668625950813,-7.450580596923828e-09,0.0,0.01908065378665924,0.1016150489449501,0.964114140504255,0.40362194180488586,0.5280181169509888,0.4227025806903839,0.5364093780517578,3.376861333847046,0.4906315803527832,,,,,,,
10021100000.0,76.62,1.2300000190734863,12495335936.0,1185.2756721074775,182.0,0.009402396157383919,749568.0,1366.4540734291077,3.48245737802344e-14,0.0,1.6710779666900635,-0.01671077311038971,0.005608024075627327,-0.016710778698325157,5.587935447692871e-09,0.0,0.015119373798370361,0.10483384132385254,0.9579211929451477,0.4198285937309265,0.5092796087265015,0.43494799733161926,0.5110575556755066,3.4557361602783203,0.49028801918029785,,,,,,,
10021100000.0,78.55,1.2300000190734863,12495335936.0,1173.5270490139806,183.0,0.011771145276725292,753664.0,1369.9444062709808,3.6404906866849274e-14,0.0,1.6911760568618774,-0.016911756247282028,0.006040468811988831,-0.016911759972572327,3.725290298461914e-09,0.0,0.014573910273611546,0.10895612835884094,0.9553502373829769,0.45551392436027527,0.514624834060669,0.47008782625198364,0.5156345963478088,3.490332841873169,0.4904026985168457,,,,,,,
10021100000.0,79.43,1.2400000095367432,12495335936.0,1085.1317054844224,184.0,0.00993694830685854,757760.0,1373.719063282013,3.6463887465032485e-14,0.0,1.6542454957962036,-0.016542451456189156,0.005618286319077015,-0.016542455181479454,3.725290298461914e-09,0.0,0.02007252350449562,0.10409761220216751,0.952166243680762,0.3623601794242859,0.45892974734306335,0.3824326992034912,0.4759633541107178,3.7746570110321045,0.490969181060791,,,,,,,
10021100000.0,77.45,1.149999976158142,12495335936.0,1119.6929739382633,185.0,0.00961633212864399,761856.0,1377.3772089481354,3.6316435969574457e-14,0.0,1.7279504537582397,-0.017279496416449547,0.005102971568703651,-0.017279503867030144,7.450580596923828e-09,0.0,0.02146812528371811,0.09872912615537643,0.9581443403560203,0.3805004954338074,0.46623456478118896,0.4019685983657837,0.4825788140296936,3.6581456661224365,0.49013781547546387,,,,,,,
10021100000.0,76.21,1.1299999952316284,12495335936.0,1170.78736417775,186.0,0.011490188539028168,765952.0,1380.8757092952728,3.5849795354536695e-14,0.0,1.7301380634307861,-0.01730138622224331,0.006787557154893875,-0.01730138063430786,-5.587935447692871e-09,0.0,0.017094971612095833,0.11526542901992798,0.946775037330897,0.41372591257095337,0.47535741329193115,0.43082088232040405,0.49962180852890015,3.498500347137451,0.489469051361084,,,,,,,
10021100000.0,79.11,1.0199999809265137,12495335936.0,1182.3370428121448,187.0,0.006602508015930653,770048.0,1384.3400344848633,3.663909453610614e-14,0.0,1.7454569339752197,-0.017454562708735466,0.012815188616514206,-0.017454568296670914,5.587935447692871e-09,0.0,-0.001209784997627139,0.16010987758636475,0.8682405961520211,0.33078533411026,0.41754353046417236,0.3295755386352539,0.4410901367664337,3.464325189590454,0.48937439918518066,,,,,,,
10021100000.0,79.32,0.9200000166893005,12495335936.0,1189.646560378762,188.0,0.010171772912144661,774144.0,1387.7830739021301,4.506811590587745e-14,0.0,1.619081974029541,-0.016190828755497932,0.014684034511446953,-0.016190819442272186,-9.313225746154785e-09,0.0,-0.004563106689602137,0.17133130133152008,0.908998207632918,0.3761318027973175,0.4933360815048218,0.3715686798095703,0.5679520964622498,3.4430394172668457,0.4893655776977539,,,,,,,
10021100000.0,74.49,1.100000023841858,12495335936.0,1167.8647920413284,189.0,0.008999230340123177,778240.0,1391.2903292179108,3.698256978434955e-14,0.0,1.7288181781768799,-0.01728818193078041,0.025466274470090866,-0.01728818193078041,0.0,0.0,-0.0057864682748913765,0.22563575208187103,0.8810438939090066,0.4362925887107849,0.5488312840461731,0.4305061101913452,0.6542060375213623,3.5072553157806396,0.4894230365753174,,,,,,,
10021100000.0,78.8,1.0700000524520874,12495335936.0,1179.3637225231216,190.0,0.009349429979920387,782336.0,1394.7633883953094,3.885260169145255e-14,0.0,1.6610628366470337,-0.016610609367489815,0.0357014462351799,-0.016610627993941307,1.862645149230957e-08,0.0,-0.03497111797332764,0.2649472653865814,0.8585266306352128,0.4873664677143097,0.5869961380958557,0.45239534974098206,0.7044044733047485,3.4730591773986816,0.48966407775878906,,,,,,,
10021100000.0,81.12,0.9900000095367432,12495335936.0,1177.181820611199,191.0,0.008679000660777092,786432.0,1398.2428848743439,3.731043252130917e-14,0.0,1.630780816078186,-0.01630781590938568,0.041807182133197784,-0.016307808458805084,-7.450580596923828e-09,0.0,-0.038892243057489395,0.2865690290927887,0.8784254152594667,0.40543073415756226,0.6678245067596436,0.36653852462768555,0.821878969669342,3.479496479034424,0.48958873748779297,,,,,,,
,,,,,,,,,,,,,,,,,,,,,,,,,,0.006976505275815725,0.020379727706313133,0.018162203952670097,0.006976505275815725,0.020379727706313133,0.018162203952670097,
,,,,,,,,,,,,,,,,,,,,,,,,,,0.003129048738628626,0.01336156576871872,0.012424346059560776,0.003129048738628626,0.01336156576871872,0.012424346059560776,
,,,,,,,,,,,,,,,,,,,,,,,,,,0.002694344613701105,0.011953421868383884,0.01120920479297638,0.002694344613701105,0.011953421868383884,0.01120920479297638,
,,,,,,,,,,,,,,,,,,,,,,,,,,0.0018311786698177457,0.011220785789191723,0.010379214771091938,0.0018311786698177457,0.011220785789191723,0.010379214771091938,
,,,,,,,,,,,,,,,,,,,,,,,,,,0.0018345273565500975,0.010919876396656036,0.010536795482039452,0.0018345273565500975,0.010919876396656036,0.010536795482039452,
,,,,,,,,,,,,,,,,,,,,,,,,,,0.0016738505801185966,0.010324744507670403,0.01015254482626915,0.0016738505801185966,0.010324744507670403,0.01015254482626915,
,,,,,,,,,,,,,,,,,,,,,,,,,,,,,,,,-1.58
10021100000.0,80.54,0.7200000286102295,12293103616.0,27.187271512525598,192.0,0.004429439082741737,790528.0,1548.9016222953796,3.361373679400259e-14,0.0,1.498019814491272,-0.014980205334722996,0.04113715887069702,-0.014980197884142399,-7.450580596923828e-09,0.0,-0.03370552882552147,0.2848825454711914,0.9067815380876578,0.07325489819049835,0.8153858184814453,0.039549365639686584,0.9330714344978333,150.65873742103577,0.5192916393280029,,,,,,,
10021100000.0,80.13,0.8500000238418579,12495335936.0,1136.1242778645199,193.0,0.010575302876532078,794624.0,1552.5068616867065,3.2036873154339673e-14,0.0,1.6577105522155762,-0.016577105969190598,0.019530408084392548,-0.016577105969190598,0.0,0.0,0.027819544076919556,0.19569426774978638,0.9322415145384673,0.3193904161453247,0.7705615162849426,0.3472099304199219,0.7517894506454468,3.6052393913269043,0.49097442626953125,,,,,,,
10021100000.0,80.54,1.1100000143051147,12495335936.0,1201.901480266978,194.0,0.008883308619260788,798720.0,1555.914794921875,2.520900155289496e-14,0.0,1.794640064239502,-0.017946403473615646,0.014775887131690979,-0.017946399748325348,-3.725290298461914e-09,0.0,0.012085835449397564,0.17150186002254486,0.8980672186622266,0.363953560590744,0.5148661136627197,0.37603941559791565,0.5371702313423157,3.407933235168457,0.4901773929595947,,,,,,,
10021100000.0,83.41,1.0199999809265137,12495335936.0,1186.1974166522534,195.0,0.007524179294705391,802816.0,1559.367845773697,3.084858757329556e-14,0.0,1.6547484397888184,-0.016547467559576035,0.04705582559108734,-0.016547484323382378,1.6763806343078613e-08,0.0,-0.018573448061943054,0.30625084042549133,0.9154563200408069,0.1972096860408783,0.969349205493927,0.17863622307777405,1.053262710571289,3.4530508518218994,0.49024367332458496,,,,,,,
10021100000.0,78.7,0.8799999952316284,12495335936.0,1169.8625573989468,196.0,0.008050264790654182,806912.0,1562.869111776352,2.8182317590719208e-14,0.0,1.7261052131652832,-0.017261052504181862,0.032477375119924545,-0.017261052504181862,0.0,0.0,0.025567511096596718,0.25360748171806335,0.8533262425161794,0.34669020771980286,0.7816948294639587,0.37225770950317383,0.6621949076652527,3.5012660026550293,0.48995018005371094,,,,,,,
10021100000.0,78.19,1.1799999475479126,12495335936.0,1190.7544342078213,197.0,0.012865155935287476,811008.0,1566.30894780159,2.9325500361387924e-14,0.0,1.7893424034118652,-0.01789342425763607,0.021638259291648865,-0.01789342425763607,0.0,0.0,0.011024922132492065,0.20776309072971344,0.9059617600593485,0.5126705765724182,0.732159435749054,0.5236955285072327,0.6775107383728027,3.439836025238037,0.48935937881469727,,,,,,,
10021100000.0,78.82,1.1699999570846558,12495335936.0,1187.2138707440427,198.0,0.007560600992292166,815104.0,1569.759042263031,2.881549165945074e-14,0.0,1.732534408569336,-0.01732533983886242,0.03662407398223877,-0.017325343564152718,3.725290298461914e-09,0.0,0.030783697962760925,0.268920361995697,0.7644505477297608,0.2923510670661926,0.6186229586601257,0.32313477993011475,0.5540930032730103,3.45009446144104,0.4896969795227051,,,,,,,
10021100000.0,76.98,1.0099999904632568,12495335936.0,1174.307299284542,199.0,0.011185797862708569,819200.0,1573.2470560073853,2.7484958753376532e-14,0.0,1.8326311111450195,-0.018326308578252792,0.004755218047648668,-0.01832631044089794,9.313225746154785e-10,0.0,0.015924351289868355,0.09622427821159363,0.9659819816312694,0.4440484642982483,0.5326098203659058,0.4599727988243103,0.5217111706733704,3.488013744354248,0.48935461044311523,,,,,,,
10021100000.0,80.27,1.25,12495335936.0,1166.7526468949711,200.0,0.011715131811797619,823296.0,1576.757654428482,2.743118232562125e-14,0.0,1.7959847450256348,-0.0179598331451416,0.007729659788310528,-0.017959846183657646,1.30385160446167e-08,0.0,0.022371932864189148,0.12232117354869843,0.9503230363689604,0.4240609407424927,0.5307214856147766,0.44643285870552063,0.5488126277923584,3.5105984210968018,0.5069220066070557,,,,,,,
10021100000.0,80.44,1.2799999713897705,12495335936.0,1165.3756777189394,201.0,0.010178257711231709,827392.0,1580.272400856018,2.923529474063713e-14,0.0,1.7911967039108276,-0.017911970615386963,0.004823433700948954,-0.017911966890096664,-3.725290298461914e-09,0.0,0.019127951934933662,0.09634965658187866,0.9625230550915568,0.4016279876232147,0.4908024072647095,0.42075595259666443,0.4977005124092102,3.5147464275360107,0.489424467086792,,,,,,,
10021100000.0,79.61,1.1200000047683716,12495335936.0,1216.5915733608888,202.0,0.009331109002232552,831488.0,1583.639183998108,2.5791868640823168e-14,0.0,1.8774032592773438,-0.018774043768644333,0.005629557650536299,-0.018774032592773438,-1.0244548320770264e-08,0.0,0.014930551871657372,0.10506612062454224,0.9424525224754962,0.3290157914161682,0.4311678409576416,0.34394630789756775,0.4379752278327942,3.3667831420898438,0.489701509475708,,,,,,,
10021100000.0,76.74,1.0499999523162842,12495335936.0,1194.4047747633003,203.0,0.010383689776062965,835584.0,1587.068507194519,2.5542068460282508e-14,0.0,1.8388981819152832,-0.018388966098427773,0.006281256675720215,-0.018388980999588966,1.4901161193847656e-08,0.0,0.02532813511788845,0.10919665545225143,0.9536691269461373,0.40948188304901123,0.4969169497489929,0.4348100423812866,0.5073108077049255,3.429323196411133,0.489332914352417,,,,,,,
10021100000.0,76.08,1.059999942779541,12495335936.0,1169.9732180331157,204.0,0.00901337806135416,839680.0,1590.5694420337677,2.953366717850514e-14,0.0,1.756442666053772,-0.01756441965699196,0.00359428976662457,-0.017564427107572556,7.450580596923828e-09,0.0,0.01021576952189207,0.08417807519435883,0.9682597625596351,0.33998212218284607,0.4646510183811188,0.3501979112625122,0.47249141335487366,3.5009348392486572,0.4892442226409912,,,,,,,
10021100000.0,79.2,1.0099999904632568,12495335936.0,1171.137896879364,205.0,0.009375648573040962,843776.0,1594.0668952465057,2.9400093470854927e-14,0.0,1.793008804321289,-0.01793009229004383,0.0055993227288126945,-0.017930088564753532,-3.725290298461914e-09,0.0,0.01673932746052742,0.10450409352779388,0.9556146786399178,0.3888470530509949,0.4824637770652771,0.4055863618850708,0.49603646993637085,3.497453212738037,0.48969483375549316,,,,,,,
10021100000.0,79.98,1.1200000047683716,12495335936.0,1191.739530093109,206.0,0.011128399521112442,847872.0,1597.5038878917694,2.818752176114714e-14,0.0,1.8362658023834229,-0.018362656235694885,0.0158589705824852,-0.018362658098340034,1.862645149230957e-09,0.0,-0.0006030290387570858,0.17811602354049683,0.9085496711644029,0.5094571113586426,0.540432333946228,0.5088540315628052,0.5889931917190552,3.436992645263672,0.4895305633544922,,,,,,,
10021100000.0,76.25,1.1100000143051147,12495335936.0,1221.1992697485525,207.0,0.00940452516078949,851968.0,1600.8579678535461,2.980948821118545e-14,0.0,1.778725028038025,-0.017787251621484756,0.004416228272020817,-0.017787249758839607,-9.313225746154785e-10,0.0,0.008689356967806816,0.09359002113342285,0.9676649354998653,0.4422646760940552,0.4964914917945862,0.45095402002334595,0.5204662680625916,3.3540799617767334,0.4893064498901367,,,,,,,
10021100000.0,75.21,1.059999942779541,12495335936.0,1170.7139640526746,208.0,0.010116089135408401,856064.0,1604.3566875457764,2.7994967455313713e-14,0.0,1.795962929725647,-0.017959628254175186,0.012060478329658508,-0.017959628254175186,-9.313225746154785e-10,0.0,-0.0032783527858555317,0.15529358386993408,0.9313738977806995,0.4699185788631439,0.5465199947357178,0.4666402041912079,0.5928008556365967,3.4987196922302246,0.4898548126220703,,,,,,,
10021100000.0,77.45,1.0499999523162842,12495335936.0,1187.5254672927558,209.0,0.009957590140402317,860160.0,1607.8058767318726,3.1204205885870806e-14,0.0,1.7728166580200195,-0.017728166654706,0.004768733866512775,-0.017728166654706,-4.656612873077393e-10,0.0,0.00469953240826726,0.09755872935056686,0.9661552261277407,0.43569666147232056,0.522548258304596,0.4403962194919586,0.5302984714508057,3.4491891860961914,0.48944640159606934,,,,,,,
10021100000.0,78.91,1.149999976158142,12495335936.0,1188.2190835385932,210.0,0.01189672015607357,864256.0,1611.2530524730682,2.6798008256889716e-14,0.0,1.8310242891311646,-0.018310243263840675,0.004082380793988705,-0.018310243263840675,0.0,0.0,-0.000502815586514771,0.09036869555711746,0.9762050410756165,0.5500078797340393,0.5713928937911987,0.5495049953460693,0.5858352780342102,3.4471757411956787,0.48951148986816406,,,,,,,
10021100000.0,79.22,1.2699999809265137,12495335936.0,1172.135892384279,211.0,0.0113857202231884,868352.0,1614.7475278377533,3.3122810050301155e-14,0.0,1.6716852188110352,-0.0167168490588665,0.004771232604980469,-0.01671685092151165,1.3969838619232178e-09,0.0,-0.0014867569552734494,0.09768615663051605,0.9605854115773149,0.452347993850708,0.4801296889781952,0.45086121559143066,0.4920446276664734,3.4944753646850586,0.48983216285705566,,,,,,,
10021100000.0,82.6,1.350000023841858,12495335936.0,1158.6690813208443,212.0,0.011750560253858566,872448.0,1618.2826182842255,2.921968222935334e-14,0.0,1.7041454315185547,-0.017041459679603577,0.002752159722149372,-0.01704145409166813,-5.587935447692871e-09,0.0,-0.0038577921222895384,0.07409977912902832,0.9801931669473692,0.544750988483429,0.516732931137085,0.5408931970596313,0.526513397693634,3.535090446472168,0.4895613193511963,,,,,,,
10021100000.0,83.55,1.4600000381469727,12495335936.0,1169.5351596056635,213.0,0.013520202599465847,876544.0,1621.7848644256592,3.354434785496352e-14,0.0,1.652933120727539,-0.016529325395822525,0.0038517105858772993,-0.016529330983757973,5.587935447692871e-09,0.0,-0.005843863822519779,0.08758506178855896,0.9807894903862138,0.5910471677780151,0.6265764832496643,0.5852032899856567,0.6319177150726318,3.502246141433716,0.508352518081665,,,,,,,
10021100000.0,83.8,1.5,12495335936.0,1190.0179580480149,214.0,0.012655975297093391,880640.0,1625.22682929039,3.0796545869016256e-14,0.0,1.5979160070419312,-0.015979161486029625,0.002213134663179517,-0.015979159623384476,-1.862645149230957e-09,0.0,-0.008436892181634903,0.06600114703178406,0.9855458018846756,0.5912901163101196,0.5470888018608093,0.5828532576560974,0.5489774346351624,3.441964864730835,0.49035143852233887,,,,,,,
10021100000.0,79.34,1.2400000095367432,12495335936.0,1194.2708475362624,215.0,0.0089789517223835,884736.0,1628.6565370559692,3.237514423215515e-14,0.0,1.6209156513214111,-0.016209155321121216,0.0024915472604334354,-0.016209155321121216,0.0,0.0,-0.016259972006082535,0.06870123744010925,0.9828482681354301,0.40842971205711365,0.5290356874465942,0.3921697437763214,0.5245785713195801,3.4297077655792236,0.49034571647644043,,,,,,,
10021100000.0,72.61,0.949999988079071,12495335936.0,1174.0050067116285,216.0,0.010226845741271973,888832.0,1632.145448923111,3.405609128037668e-14,0.0,1.671242356300354,-0.016712438315153122,0.002844588365405798,-0.016712423413991928,-1.4901161193847656e-08,0.0,-0.0053502898663282394,0.07524582743644714,0.984162052121337,0.5100772976875305,0.5972597002983093,0.5047270059585571,0.5979060530662537,3.4889118671417236,0.4903087615966797,,,,,,,
10021100000.0,77.01,1.149999976158142,12495335936.0,1158.303089503732,217.0,0.011829596012830734,892928.0,1635.6816563606262,3.579428420330544e-14,0.0,1.6580240726470947,-0.016580242663621902,0.002585743088275194,-0.016580240800976753,-1.862645149230957e-09,0.0,-0.005860275123268366,0.07168261706829071,0.9826304005471675,0.5235902070999146,0.5389813780784607,0.5177299380302429,0.5438998937606812,3.536207437515259,0.48984503746032715,,,,,,,
10021100000.0,81.98,1.2799999713897705,12495335936.0,1111.5476435075225,218.0,0.009902347810566425,897024.0,1639.36660861969,3.2128813498566444e-14,0.0,1.6554874181747437,-0.01655486971139908,0.0036685229279100895,-0.016554873436689377,3.725290298461914e-09,0.0,-0.007970999926328659,0.08529528230428696,0.9767366848938719,0.4763915240764618,0.5627238154411316,0.46842050552368164,0.5592283010482788,3.6849522590637207,0.489654541015625,,,,,,,
10021100000.0,80.06,1.2799999713897705,12495335936.0,1152.7267317016153,219.0,0.012749318964779377,901120.0,1642.9199225902557,3.025704686798747e-14,0.0,1.7507497072219849,-0.017507491633296013,0.0028596289921551943,-0.01750749722123146,5.587935447692871e-09,0.0,0.00023466750280931592,0.07563464343547821,0.9830328258724573,0.561109185218811,0.5737990736961365,0.561343789100647,0.580652117729187,3.553313970565796,0.48958873748779297,,,,,,,
10021100000.0,81.66,1.190000057220459,12495335936.0,1142.4126025427852,220.0,0.008867434225976467,905216.0,1646.5053172111511,3.3400365806457444e-14,0.0,1.6913264989852905,-0.016913259401917458,0.0041632079519331455,-0.016913264989852905,5.587935447692871e-09,0.0,0.003943723626434803,0.09117506444454193,0.9663044282660043,0.4180050194263458,0.49993976950645447,0.42194873094558716,0.4966948628425598,3.5853946208953857,0.4895472526550293,,,,,,,
10021100000.0,86.6,1.2599999904632568,12495335936.0,1165.126480528947,221.0,0.01189814880490303,909312.0,1650.020815372467,3.6441336059844787e-14,0.0,1.6137633323669434,-0.016137635335326195,0.0032233388628810644,-0.016137633472681046,-1.862645149230957e-09,0.0,0.00394237507134676,0.08020415157079697,0.9779775644092281,0.48706626892089844,0.5383566617965698,0.49100860953330994,0.5404607653617859,3.515498161315918,0.4895918369293213,,,,,,,
10021100000.0,83.82,1.3700000047683716,12495335936.0,1169.2431171687167,222.0,0.014046109281480312,913408.0,1653.5239362716675,4.021609434357032e-14,0.0,1.6085600852966309,-0.016085602343082428,0.002769042272120714,-0.01608560048043728,-9.313225746154785e-10,0.0,0.002236919943243265,0.07439375668764114,0.9858619771090489,0.6060699224472046,0.632705807685852,0.6083067655563354,0.6256654262542725,3.5031208992004395,0.489335298538208,,,,,,,
10021100000.0,82.11,1.4199999570846558,12495335936.0,1202.2338755976575,223.0,0.010860379785299301,917504.0,1656.9309272766113,3.217565103241782e-14,0.0,1.6611888408660889,-0.016611887142062187,0.003111219732090831,-0.016611887142062187,0.0,0.0,0.011929373256862164,0.07798470556735992,0.9796671237369843,0.4438040852546692,0.5385505557060242,0.4557334780693054,0.5469026565551758,3.4069910049438477,0.48947978019714355,,,,,,,
,,,,,,,,,,,,,,,,,,,,,,,,,,0.003976122941821814,0.014409294351935387,0.011251959949731827,0.003976122941821814,0.014409294351935387,0.011251959949731827,
,,,,,,,,,,,,,,,,,,,,,,,,,,0.0021124386694282293,0.010516605339944363,0.011092525906860828,0.0021124386694282293,0.010516605339944363,0.011092525906860828,
,,,,,,,,,,,,,,,,,,,,,,,,,,0.003076747292652726,0.010694075375795364,0.012581526301801205,0.003076747292652726,0.010694075375795364,0.012581526301801205,
,,,,,,,,,,,,,,,,,,,,,,,,,,0.001760675455443561,0.008878850378096104,0.008950073271989822,0.001760675455443561,0.008878850378096104,0.008950073271989822,
,,,,,,,,,,,,,,,,,,,,,,,,,,0.001599309267476201,0.008721006102859974,0.008680813014507294,0.001599309267476201,0.008721006102859974,0.008680813014507294,
,,,,,,,,,,,,,,,,,,,,,,,,,,0.001950813690200448,0.008529541082680225,0.008144725114107132,0.001950813690200448,0.008529541082680225,0.008144725114107132,
,,,,,,,,,,,,,,,,,,,,,,,,,,,,,,,,-1.32
10021100000.0,82.37,1.3899999856948853,12293103616.0,27.05310823361304,224.0,0.012121908366680145,921600.0,1808.3368198871613,2.9700200632198914e-14,0.0,1.6755266189575195,-0.016755279153585434,0.0033584998454898596,-0.01675526611506939,-1.30385160446167e-08,0.0,0.015357168391346931,0.08051545917987823,0.979640291370836,0.4908938705921173,0.5569861531257629,0.5062510371208191,0.5642784237861633,151.40589261054993,0.5211076736450195,,,,,,,
10021100000.0,81.87,1.2100000381469727,12495335936.0,1169.358197426739,225.0,0.010172445327043533,925696.0,1811.8395960330963,2.869232629265639e-14,0.0,1.6100422143936157,-0.01610042154788971,0.00852062925696373,-0.01610042154788971,0.0,0.0,0.00016092578880488873,0.13055801391601562,0.9498159148596833,0.37957167625427246,0.5342331528663635,0.379732608795166,0.582801342010498,3.5027761459350586,0.4905221462249756,,,,,,,
10021100000.0,78.72,1.2100000381469727,12495335936.0,1142.798190214287,226.0,0.011973252519965172,929792.0,1815.4237809181213,2.6886479154164533e-14,0.0,1.7396519184112549,-0.017396526411175728,0.0033797197975218296,-0.01739651896059513,-7.450580596923828e-09,0.0,0.024181466549634933,0.0785888284444809,0.9806344077530418,0.4594748914241791,0.555931568145752,0.4836563467979431,0.5647359490394592,3.5841848850250244,0.4902842044830322,,,,,,,
10021100000.0,79.59,1.2699999809265137,12495335936.0,1169.777405189262,227.0,0.010378778912127018,933888.0,1818.9253017902374,2.7427712878669297e-14,0.0,1.7609930038452148,-0.017609931528568268,0.005043353885412216,-0.01760992966592312,-1.862645149230957e-09,0.0,0.025875546038150787,0.09705392271280289,0.9567522310191676,0.42275044322013855,0.4629317820072174,0.44862601161003113,0.46669289469718933,3.501520872116089,0.4897501468658447,,,,,,,
10021100000.0,87.28,1.2300000190734863,12495335936.0,1183.4223708621835,228.0,0.010213945060968399,937984.0,1822.3864498138428,2.7101584865185657e-14,0.0,1.724370002746582,-0.017243701964616776,0.0023878321517258883,-0.017243700101971626,-9.313225746154785e-10,0.0,0.013141335919499397,0.06785347312688828,0.9802370565523485,0.38522279262542725,0.47740063071250916,0.3983641266822815,0.4826655387878418,3.4611480236053467,0.4892263412475586,,,,,,,
10021100000.0,79.43,1.1100000143051147,12495335936.0,1165.3436625985598,229.0,0.010408278554677963,942080.0,1825.9012928009033,2.6825763832505345e-14,0.0,1.6462080478668213,-0.016462072730064392,0.005297748371958733,-0.01646208018064499,7.450580596923828e-09,0.0,0.010496559552848339,0.10241034626960754,0.9662076762596469,0.43642497062683105,0.5717501640319824,0.44692152738571167,0.5571021437644958,3.514842987060547,0.48941707611083984,,,,,,,
10021100000.0,81.79,1.1200000047683716,12495335936.0,1203.3560569966442,230.0,0.010243594646453857,946176.0,1829.305106639862,2.724209746673978e-14,0.0,1.718860149383545,-0.017188601195812225,0.0025673378258943558,-0.017188601195812225,0.0,0.0,0.016071809455752373,0.06983955949544907,0.9839694695458834,0.5148011445999146,0.554176390171051,0.5308729410171509,0.5516040921211243,3.4038138389587402,0.48940491676330566,,,,,,,
10021100000.0,89.57,1.2999999523162842,12495335936.0,1185.1427213815862,231.0,0.010796867311000824,950272.0,1832.76123046875,2.5902890943285684e-14,0.0,1.752406358718872,-0.01752406917512417,0.006966704037040472,-0.01752406358718872,-5.587935447692871e-09,0.0,0.013412067666649818,0.11728974431753159,0.9535721795160953,0.45481622219085693,0.5591143369674683,0.468228280544281,0.5443407893180847,3.4561238288879395,0.48946046829223633,,,,,,,
10021100000.0,87.35,1.2400000095367432,12495335936.0,1182.8686258783193,232.0,0.00936899147927761,954368.0,1836.223998785019,2.4865526304651553e-14,0.0,1.810389757156372,-0.01810389570891857,0.022430328652262688,-0.01810389757156372,2.3283064365386963e-09,0.0,-0.015869485214352608,0.21123377978801727,0.8573298658910345,0.4476894736289978,0.5522671341896057,0.43181997537612915,0.5592381954193115,3.462768316268921,0.49666500091552734,,,,,,,
10021100000.0,84.66,1.090000033378601,12495335936.0,1194.2564021285175,233.0,0.009922251105308533,958464.0,1839.653748035431,2.626371342628886e-14,0.0,1.7439583539962769,-0.0174395814538002,0.005510029383003712,-0.01743958331644535,1.862645149230957e-09,0.0,0.015281213447451591,0.10387096554040909,0.9599255998175664,0.43236684799194336,0.5281873345375061,0.4476480484008789,0.5188724994659424,3.4297492504119873,0.4902174472808838,,,,,,,
10021100000.0,83.01,1.2799999713897705,12495335936.0,1219.3864029289346,234.0,0.013183842413127422,962560.0,1843.0128145217896,2.6277591214096674e-14,0.0,1.8235878944396973,-0.018235886469483376,0.013995938003063202,-0.01823587901890278,-7.450580596923828e-09,0.0,-0.014752686023712158,0.1666763722896576,0.93864633777001,0.6022261381149292,0.6540209054946899,0.5874735116958618,0.6729051470756531,3.3590664863586426,0.48989272117614746,,,,,,,
10021100000.0,87.46,1.399999976158142,12495335936.0,1181.6174405311074,235.0,0.010125791653990746,966656.0,1846.4792494773865,2.3434379436970687e-14,0.0,1.8776072263717651,-0.01877606473863125,0.01461276225745678,-0.018776072189211845,7.450580596923828e-09,0.0,0.013383371755480766,0.17045088112354279,0.8807758921624671,0.43948620557785034,0.4890270531177521,0.45286959409713745,0.49364784359931946,3.466434955596924,0.4896235466003418,,,,,,,
10021100000.0,88.67,1.4199999570846558,12495335936.0,1200.2645621215697,236.0,0.01411988865584135,970752.0,1849.891830444336,2.3410093308307012e-14,0.0,1.9392361640930176,-0.019392360001802444,0.0033095614053308964,-0.019392361864447594,1.862645149230957e-09,0.0,0.0006668739952147007,0.0813651904463768,0.9840720383141139,0.6456356644630432,0.6388634443283081,0.6463025212287903,0.6447013020515442,3.412580966949463,0.4895205497741699,,,,,,,
10021100000.0,85.29,1.3300000429153442,12495335936.0,1188.138797799091,237.0,0.00960695743560791,974848.0,1853.3392391204834,2.2697121959680544e-14,0.0,1.8940240144729614,-0.018940255045890808,0.002982495818287134,-0.018940240144729614,-1.5832483768463135e-08,0.0,0.011089630424976349,0.07644238322973251,0.979360874498169,0.43281975388526917,0.5259042978286743,0.4439094066619873,0.5320942401885986,3.447408676147461,0.4894275665283203,,,,,,,
10021100000.0,81.44,1.2000000476837158,12495335936.0,1217.2990411394233,238.0,0.011253307573497295,978944.0,1856.7040655612946,2.141169186398173e-14,0.0,2.0033469200134277,-0.020033475011587143,0.002666650339961052,-0.020033469423651695,-5.587935447692871e-09,0.0,0.009183798916637897,0.07245853543281555,0.9840518979793498,0.5140137672424316,0.5654190182685852,0.523197591304779,0.5737663507461548,3.3648264408111572,0.48942041397094727,,,,,,,
10021100000.0,85.19,1.3600000143051147,12495335936.0,1135.1799630092382,239.0,0.011994974687695503,983040.0,1860.312304019928,2.3857651965109028e-14,0.0,1.8911542892456055,-0.01891154795885086,0.005207007750868797,-0.018911542370915413,-6.05359673500061e-09,0.0,0.000842213339637965,0.1020580604672432,0.9730297989130511,0.5139147043228149,0.6224982142448425,0.5147569179534912,0.6214486956596375,3.608238458633423,0.48933935165405273,,,,,,,
10021100000.0,78.33,1.1200000047683716,12495335936.0,1181.2937468103794,240.0,0.01037490926682949,987136.0,1863.779688835144,2.072647609097089e-14,0.0,1.9758977890014648,-0.01975897327065468,0.0016654080245643854,-0.019758976995944977,3.259629011154175e-09,0.0,-0.0023955493234097958,0.05767052620649338,0.9893950723540099,0.5078077912330627,0.5537490248680115,0.505412220954895,0.5600154995918274,3.4673848152160645,0.48937273025512695,,,,,,,
10021100000.0,79.67,1.1100000143051147,12495335936.0,1189.4166852615404,241.0,0.011662044562399387,991232.0,1867.2233936786652,1.9251961136390605e-14,0.0,2.0270822048187256,-0.020270824432373047,0.019503647461533546,-0.02027082070708275,-3.725290298461914e-09,0.0,-0.010953132063150406,0.1972227692604065,0.8856131787364725,0.5550922155380249,0.5566917061805725,0.5441391468048096,0.5831349492073059,3.443704843521118,0.48933935165405273,,,,,,,
10021100000.0,86.28,1.2599999904632568,12495335936.0,1191.658685267227,242.0,0.009852887131273746,995328.0,1870.6606194972992,2.031881607411634e-14,0.0,2.0355541706085205,-0.02035554125905037,0.004774227738380432,-0.02035554125905037,0.0,0.0,-0.006809164769947529,0.0974905788898468,0.9691454642897953,0.4935063123703003,0.5489208698272705,0.48669716715812683,0.5550130009651184,3.437225818634033,0.48961758613586426,,,,,,,
10021100000.0,83.48,1.2300000190734863,12495335936.0,1208.6469983079517,243.0,0.011509206146001816,999424.0,1874.0495328903198,2.071606775011503e-14,0.0,2.054811954498291,-0.020548122003674507,0.02062181755900383,-0.02054811827838421,-3.725290298461914e-09,0.0,-0.007139108143746853,0.2029845267534256,0.878333046412711,0.5216052532196045,0.5563526153564453,0.5144661664962769,0.581937849521637,3.38891339302063,0.4891679286956787,,,,,,,
10021100000.0,82.04,1.100000023841858,12495335936.0,1206.841338072692,244.0,0.007864185608923435,1003520.0,1877.4435167312622,1.822327011513636e-14,0.0,2.1031761169433594,-0.021031776443123817,0.028449062258005142,-0.021031761541962624,-1.4901161193847656e-08,0.0,-0.018672846257686615,0.23783032596111298,0.7801397185648643,0.4686625301837921,0.4611632823944092,0.4499896764755249,0.5072170495986938,3.393983840942383,0.48946094512939453,,,,,,,
10021100000.0,88.81,1.100000023841858,12495335936.0,1197.463197695779,245.0,0.010255828499794006,1007616.0,1880.8640811443329,2.230333973063381e-14,0.0,1.935093641281128,-0.01935093104839325,0.004507944453507662,-0.019350936636328697,5.587935447692871e-09,0.0,0.006283759605139494,0.09475544840097427,0.9636423117622693,0.4123362898826599,0.4910983443260193,0.4186200797557831,0.496942400932312,3.4205644130706787,0.4895627498626709,,,,,,,
10021100000.0,93.0,1.2000000476837158,12495335936.0,1177.384477623151,246.0,0.010999602265655994,1011712.0,1884.3429787158966,2.2148949341271873e-14,0.0,1.9765801429748535,-0.01976580172777176,0.026942148804664612,-0.01976580172777176,0.0,0.0,-0.008714234456419945,0.2319945991039276,0.8331292674750559,0.5238813161849976,0.5243768095970154,0.5151669979095459,0.5679208040237427,3.4788975715637207,0.5188400745391846,,,,,,,
10021100000.0,89.35,1.25,12495335936.0,1176.9796365215313,247.0,0.009360355325043201,1015808.0,1887.8230729103088,2.2799470644763176e-14,0.0,1.9407024383544922,-0.019407015293836594,0.01712878793478012,-0.01940702460706234,1.0244548320770264e-08,0.0,0.007508598733693361,0.18495823442935944,0.8883945090778435,0.42408162355422974,0.5105857253074646,0.4315902292728424,0.5536443591117859,3.4800941944122314,0.49019622802734375,,,,,,,
10021100000.0,87.9,1.3200000524520874,12495335936.0,1188.4008964678424,248.0,0.014331107959151268,1019904.0,1891.2697212696075,2.3897550605056495e-14,0.0,1.943756103515625,-0.019437560811638832,0.01607567071914673,-0.019437560811638832,0.0,0.0,0.00483303889632225,0.17926467955112457,0.9201874600849521,0.5714874863624573,0.6061245203018188,0.5763205289840698,0.6345402002334595,3.446648359298706,0.4893786907196045,,,,,,,
10021100000.0,86.53,1.25,12495335936.0,1199.611344192203,249.0,0.009011081419885159,1024000.0,1894.6841604709625,2.245946484347172e-14,0.0,1.9595160484313965,-0.01959516666829586,0.0219483133405447,-0.019595159217715263,-7.450580596923828e-09,0.0,-0.0034807538613677025,0.2095118910074234,0.84601468280886,0.4195494055747986,0.4669433534145355,0.4160686731338501,0.5339111685752869,3.4144392013549805,0.48944640159606934,,,,,,,
10021100000.0,91.45,1.2899999618530273,12495335936.0,1196.797683851433,250.0,0.010863861069083214,1028096.0,1898.1066269874573,2.474756510828513e-14,0.0,1.8767842054367065,-0.01876784861087799,0.0049575986340641975,-0.018767841160297394,-8.381903171539307e-09,0.0,0.022988205775618553,0.09689702838659286,0.9645990151954548,0.4391500651836395,0.4996609687805176,0.46213823556900024,0.5149946808815002,3.422466516494751,0.489410400390625,,,,,,,
10021100000.0,95.68,1.3300000429153442,12495335936.0,1130.0550076552272,251.0,0.009955902583897114,1032192.0,1901.7312293052673,2.3614790678472275e-14,0.0,1.8528010845184326,-0.018527977168560028,0.005025463178753853,-0.018528010696172714,3.3527612686157227e-08,0.0,0.03639398515224457,0.09342662990093231,0.9622628107337752,0.3704974055290222,0.45861634612083435,0.4068913757801056,0.4809344708919525,3.6246023178100586,0.4898507595062256,,,,,,,
10021100000.0,90.65,1.3300000429153442,12495335936.0,1187.5696308897645,252.0,0.012736938893795013,1036288.0,1905.180290222168,2.734444615182241e-14,0.0,1.8933024406433105,-0.018933024257421494,0.0039454493671655655,-0.018933024257421494,-9.313225746154785e-10,0.0,0.019025219604372978,0.08678005635738373,0.97920061894425,0.5353549718856812,0.5898257493972778,0.5543801784515381,0.60172039270401,3.4490609169006348,0.48955678939819336,,,,,,,
10021100000.0,87.01,1.4800000190734863,12495335936.0,1177.640803110531,253.0,0.013859578408300877,1040384.0,1908.6584305763245,2.6492696925117798e-14,0.0,1.9144032001495361,-0.019144024699926376,0.0023649074137210846,-0.019144032150506973,7.450580596923828e-09,0.0,0.014380192384123802,0.06726165115833282,0.98650882903965,0.5796499848365784,0.5739250183105469,0.5940302014350891,0.5790855288505554,3.478140354156494,0.4895646572113037,,,,,,,
10021100000.0,90.74,1.4500000476837158,12495335936.0,1177.0855990976247,254.0,0.009436736814677715,1044480.0,1912.1382114887238,2.521940989375082e-14,0.0,1.811701774597168,-0.018117010593414307,0.005231216549873352,-0.018117018043994904,7.450580596923828e-09,0.0,0.02918069250881672,0.09804727137088776,0.9380886937214225,0.4039309024810791,0.37989935278892517,0.43311160802841187,0.3940493166446686,3.479780912399292,0.4896056652069092,,,,,,,
10021100000.0,93.46,1.3799999952316284,12495335936.0,1201.8707059903847,255.0,0.011301694437861443,1048576.0,1915.5462319850922,2.5392882241348502e-14,0.0,1.8432587385177612,-0.01843259111046791,0.006885369773954153,-0.018432587385177612,-3.725290298461914e-09,0.0,0.014416228979825974,0.11647412925958633,0.9637931315646332,0.5419100522994995,0.6129567623138428,0.5563262701034546,0.6121163368225098,3.408020496368408,0.4896082878112793,,,,,,,
