CpuMaxMemory,EpLenMean,EpRewMean,GpuMaxMemory,IPS_total,Iter,Misc/FrameRewMean,Misc/InteractCount,Misc/TimeElapsed,Opt/approxkl,Opt/clipfrac,Opt/entropy,Opt/loss_pi,Opt/loss_vf,Opt/negent,Opt/pg,Opt/pi_kl,VFStats/AdvMean,VFStats/AdvStd,VFStats/EV,VFStats/VpredMean,VFStats/VpredStd,VFStats/VtargMean,VFStats/VtargStd,del_time,wait_optimization,scaled/pol_distance,scaled/vf_aux,scaled/vf_true,unscaled/pol_distance,unscaled/vf_aux,unscaled/vf_true,EvalEpMean
3036260000.0,75.06818181818181,-2.7727272510528564,11965495808.0,1359.5049136031214,0.0,-0.019023992121219635,4096.0,3.012861490249634,2.55351295663786e-15,0.0,2.707551956176758,-0.027075519785284996,0.2370024025440216,-0.027075519785284996,0.0,0.0,-0.29704004526138306,0.621181309223175,-0.002681889258225212,0.0014665646012872458,0.009920214302837849,-0.29557347297668457,0.6203500032424927,3.012861490249634,1.0221529006958008,,,,,,,
3085600000.0,79.20618556701031,-3.2371134757995605,12031147008.0,1428.1931111353856,1.0,-0.0189850851893425,8192.0,5.880820989608765,3.0461744238152733e-15,0.0,2.7052831649780273,-0.027052849531173706,0.20769572257995605,-0.027052830904722214,-1.862645149230957e-08,0.0,-0.1999594271183014,0.6127800345420837,0.01264124657133281,-0.31329345703125,0.07107269763946533,-0.513252854347229,0.6166902184486389,2.867959499359131,0.9987292289733887,,,,,,,
3134968000.0,76.71,-2.7699999809265137,12031147008.0,1438.447876464687,2.0,-0.016062166541814804,12288.0,8.728334665298462,3.157196726277789e-15,0.0,2.7019853591918945,-0.027019862085580826,0.19893136620521545,-0.02701985277235508,-9.313225746154785e-09,0.0,-0.041730985045433044,0.629458487033844,0.05166458614100122,-0.7711442708969116,0.19752340018749237,-0.8128752708435059,0.6463773250579834,2.8475136756896973,0.9981768131256104,,,,,,,
3184072000.0,75.48,-2.4700000286102295,12031147008.0,1446.4134007264956,3.0,-0.017690716311335564,16384.0,11.560166835784912,3.2404634531246757e-15,0.0,2.6993589401245117,-0.026993591338396072,0.2956414818763733,-0.026993589475750923,-1.862645149230957e-09,0.0,0.06172295659780502,0.7665616273880005,0.09396921422388493,-1.4139446020126343,0.3839910924434662,-1.3522217273712158,0.8053333163261414,2.83183217048645,0.998070478439331,,,,,,,
3233440000.0,74.1,-2.7300000190734863,12031147008.0,1440.439686578731,4.0,-0.018021879717707634,20480.0,14.403743028640747,3.95516952522712e-15,0.0,2.693406343460083,-0.026934072375297546,0.265261173248291,-0.0269340630620718,-9.313225746154785e-09,0.0,0.08934749662876129,0.7229570746421814,0.09579832646056397,-1.3719549179077148,0.36520200967788696,-1.2826073169708252,0.7602910399436951,2.843576192855835,0.997997522354126,,,,,,,
3282544000.0,80.04,-3.25,12031147008.0,1429.9162721882165,5.0,-0.021242203190922737,24576.0,17.26824641227722,4.253541963095131e-15,0.0,2.6856017112731934,-0.026856010779738426,0.24631480872631073,-0.026856016367673874,5.587935447692871e-09,0.0,-0.09845996648073196,0.695020318031311,0.17516995123905754,-1.0352272987365723,0.28068220615386963,-1.1336872577667236,0.7652709484100342,2.8645033836364746,0.9983389377593994,,,,,,,
3331648000.0,81.99,-3.240000009536743,12031147008.0,1434.3992930478362,6.0,-0.016604971140623093,28672.0,20.123797178268433,3.615163723935666e-15,0.0,2.692816734313965,-0.026928173378109932,0.21227845549583435,-0.026928165927529335,-7.450580596923828e-09,0.0,-0.023326851427555084,0.6512421369552612,0.15616430235174428,-0.9698782563209534,0.28928571939468384,-0.9932051301002502,0.7089467644691467,2.855550765991211,0.9987070560455322,,,,,,,
3381016000.0,75.84,-2.5399999618530273,12031147008.0,1401.5845355261963,7.0,-0.014489172026515007,32768.0,23.04620385169983,3.975986206938842e-15,0.0,2.6863622665405273,-0.026863625273108482,0.1969042867422104,-0.026863621547818184,-3.725290298461914e-09,0.0,0.0664028599858284,0.6240947842597961,0.13505813035183756,-0.9976980686187744,0.30459558963775635,-0.9312952756881714,0.6710534691810608,2.9224066734313965,0.9988536834716797,,,,,,,
3430120000.0,77.87,-2.640000104904175,12031147008.0,1458.3943316076102,8.0,-0.01979662850499153,36864.0,25.854772090911865,4.2674197509029455e-15,0.0,2.6826012134552,-0.026826011016964912,0.2274249643087387,-0.026826011016964912,0.0,0.0,-0.0935896709561348,0.6679818630218506,0.06404216282065456,-0.8914135694503784,0.30981719493865967,-0.9850032329559326,0.6904568076133728,2.808568239212036,0.9981825351715088,,,,,,,
3479224000.0,83.86,-3.059999942779541,12031147008.0,1429.3392828023384,9.0,-0.014100516214966774,40960.0,28.720431804656982,4.73232564246473e-15,0.0,2.6748480796813965,-0.026748472824692726,0.18808017671108246,-0.026748480275273323,7.450580596923828e-09,0.0,-0.014296788722276688,0.613227367401123,0.16267710720270168,-0.9405823945999146,0.3007376790046692,-0.9548791646957397,0.6701546907424927,2.865659713745117,0.9983527660369873,,,,,,,
3528592000.0,86.12,-2.940000057220459,12031147008.0,1387.4057313214237,10.0,-0.017438193783164024,45056.0,31.672704458236694,4.475586568020162e-15,0.0,2.678422451019287,-0.02678423933684826,0.20102077722549438,-0.026784224435687065,-1.4901161193847656e-08,0.0,-0.06014423444867134,0.6312856078147888,0.1987932649371531,-0.8005083799362183,0.30784523487091064,-0.8606525659561157,0.7052670121192932,2.952272653579712,0.998542308807373,,,,,,,
3577696000.0,83.36,-3.319999933242798,12031147008.0,1423.2314213451546,11.0,-0.021179208531975746,49152.0,34.55066227912903,4.93875773610597e-15,0.0,2.6703121662139893,-0.02670312114059925,0.23070761561393738,-0.02670312114059925,0.0,0.0,-0.10082052648067474,0.6718338131904602,0.1670662263790086,-0.8384888172149658,0.3408288061618805,-0.9393093585968018,0.7361335158348083,2.877957820892334,0.9980602264404297,,,,,,,
3627064000.0,79.83,-3.1700000762939453,12031147008.0,1419.7380112211395,12.0,-0.011950323358178139,53248.0,37.43570160865784,5.048045315092509e-15,0.0,2.6548004150390625,-0.026548000052571297,0.1571832299232483,-0.026548003777861595,3.725290298461914e-09,0.0,0.054345715790987015,0.5581120252609253,0.3551585518246334,-0.974351704120636,0.4013795554637909,-0.9200059175491333,0.6950162053108215,2.8850393295288086,0.9984331130981445,,,,,,,
3676168000.0,79.75,-2.3299999237060547,12031147008.0,1413.15846315626,13.0,-0.014284113422036171,57344.0,40.33417344093323,5.538972058793945e-15,0.0,2.643350601196289,-0.02643349952995777,0.2256806492805481,-0.02643350511789322,5.587935447692871e-09,0.0,0.04485529661178589,0.670417070388794,0.3352849107398507,-1.1386339664459229,0.44305455684661865,-1.0937786102294922,0.8222942352294922,2.8984718322753906,0.9979078769683838,,,,,,,
3725536000.0,82.65,-2.140000104904175,12031147008.0,1378.2228686780263,14.0,-0.009793557226657867,61440.0,43.306116580963135,5.240599620925934e-15,0.0,2.5971672534942627,-0.02597169391810894,0.18027526140213013,-0.02597167156636715,-2.2351741790771484e-08,0.0,0.1280992329120636,0.5867070555686951,0.41107279938150887,-1.093808889389038,0.4706997871398926,-0.9657095670700073,0.764522910118103,2.9719431400299072,0.999387264251709,,,,,,,
3775168000.0,80.17,-1.75,12031147008.0,1449.3001492250614,15.0,-0.007868301123380661,65536.0,46.1323082447052,5.006411951669065e-15,0.0,2.604762077331543,-0.026047615334391594,0.13328728079795837,-0.02604762092232704,5.587935447692871e-09,0.0,0.1233069896697998,0.5014293193817139,0.3856338974416845,-0.9113922119140625,0.41952186822891235,-0.7880852222442627,0.6397290229797363,2.8261916637420654,1.000847339630127,,,,,,,
3824800000.0,75.84,-1.7200000286102295,12031147008.0,1408.6876993486615,16.0,-0.014890502206981182,69632.0,49.039978981018066,5.061923102900323e-15,0.0,2.6173324584960938,-0.02617330476641655,0.18238307535648346,-0.026173323392868042,1.862645149230957e-08,0.0,-0.0028189998120069504,0.6040259003639221,0.3219499571951143,-0.8054400682449341,0.35675284266471863,-0.8082590699195862,0.7335414886474609,2.907670736312866,0.9985706806182861,,,,,,,
3874168000.0,77.25,-1.7799999713897705,12031147008.0,1460.9542284147046,17.0,-0.00796495657414198,73728.0,51.84362602233887,5.415806691999592e-15,0.0,2.6090822219848633,-0.026090821251273155,0.11952070891857147,-0.026090821251273155,0.0,0.0,0.034911997616291046,0.48773008584976196,0.3006998758799895,-0.5417453050613403,0.29765784740448,-0.5068333148956299,0.5832405686378479,2.803647041320801,0.9981534481048584,,,,,,,
3923800000.0,72.81,-1.940000057220459,12031147008.0,1349.8575476154483,18.0,-0.014509876258671284,77824.0,54.87802028656006,4.909267437014364e-15,0.0,2.6270058155059814,-0.02627004310488701,0.151809424161911,-0.026270058006048203,1.5832483768463135e-08,0.0,-0.05830769240856171,0.5479893684387207,0.29101813203109284,-0.534984290599823,0.26943930983543396,-0.5932919383049011,0.6508105397224426,3.0343942642211914,0.9987022876739502,,,,,,,
3973168000.0,68.89,-2.140000104904175,12031147008.0,1355.4112828039838,19.0,-0.01496078260242939,81920.0,57.89998126029968,4.628242233906121e-15,0.0,2.6501286029815674,-0.026501288637518883,0.16754551231861115,-0.026501284912228584,-3.725290298461914e-09,0.0,-0.0713185966014862,0.5745304822921753,0.14782618308654027,-0.49375107884407043,0.24973814189434052,-0.5650696754455566,0.6223704814910889,3.021960973739624,0.998582124710083,,,,,,,
4022800000.0,72.65,-2.1700000762939453,12031147008.0,1409.629135401735,20.0,-0.015121154487133026,86016.0,60.80571007728577,4.468647674116255e-15,0.0,2.6569061279296875,-0.02656904049217701,0.18498270213603973,-0.02656906098127365,2.0489096641540527e-08,0.0,-0.10516192018985748,0.5991610884666443,0.19080215697727576,-0.4517463445663452,0.26947158575057983,-0.5569082498550415,0.6660643219947815,2.905728816986084,0.9987094402313232,,,,,,,
4072168000.0,78.38,-2.559999942779541,12031147008.0,1408.1727249292321,21.0,-0.015197893604636192,90112.0,63.714444160461426,5.023759186428833e-15,0.0,2.650258779525757,-0.026502575725317,0.15797826647758484,-0.026502586901187897,1.1175870895385742e-08,0.0,-0.0829630196094513,0.5560118556022644,0.2836364248383416,-0.515609860420227,0.27881601452827454,-0.5985729098320007,0.656927227973938,2.908734083175659,0.9981403350830078,,,,,,,
4121800000.0,78.58,-2.2200000286102295,12031147008.0,1453.9731629040382,22.0,-0.010595031082630157,94208.0,66.53155255317688,4.538036613155327e-15,0.0,2.6525163650512695,-0.026525169610977173,0.17368753254413605,-0.026525162160396576,-7.450580596923828e-09,0.0,-0.0709582269191742,0.5851697325706482,0.32679577560461626,-0.46040576696395874,0.30945682525634766,-0.5313639640808105,0.7131952047348022,2.817108392715454,0.9987125396728516,,,,,,,
4171168000.0,74.97,-1.7599999904632568,12031147008.0,1431.8139807782093,23.0,-0.013348311185836792,98304.0,69.39225935935974,4.489464355827977e-15,0.0,2.6538403034210205,-0.02653840184211731,0.1636505126953125,-0.02653840184211731,0.0,0.0,-0.017989682033658028,0.5718892216682434,0.285909391068887,-0.5550679564476013,0.35323411226272583,-0.5730576515197754,0.6767608523368835,2.8607068061828613,0.9985947608947754,,,,,,,
4220800000.0,71.76,-1.8600000143051147,12031147008.0,1402.0792539902232,24.0,-0.010462472215294838,102400.0,72.31363487243652,4.701100619897147e-15,0.0,2.6338613033294678,-0.0263386033475399,0.13418032228946686,-0.026338612660765648,9.313225746154785e-09,0.0,0.0004592873156070709,0.5180984139442444,0.40294042757013626,-0.5410313606262207,0.4389296770095825,-0.5405720472335815,0.6705071926116943,2.9213755130767822,0.9990074634552002,,,,,,,
4270432000.0,77.43,-2.450000047683716,12031147008.0,1406.5505953937982,25.0,-0.018370553851127625,106496.0,75.22572350502014,4.328135072562134e-15,0.0,2.635058879852295,-0.026350591331720352,0.22886717319488525,-0.026350587606430054,-3.725290298461914e-09,0.0,-0.07988186180591583,0.671910285949707,0.3823669461312489,-0.7706874012947083,0.4527798295021057,-0.8505692481994629,0.8549604415893555,2.912088632583618,0.9983935356140137,,,,,,,
4319800000.0,76.73,-2.2200000286102295,12031147008.0,1441.9473037268579,26.0,-0.008596916683018208,110592.0,78.06632661819458,4.636915851286005e-15,0.0,2.6336803436279297,-0.026336796581745148,0.13608235120773315,-0.026336802169680595,6.51925802230835e-09,0.0,0.109858937561512,0.5100581049919128,0.5220662002265462,-0.8241254091262817,0.5500270128250122,-0.7142664194107056,0.7377950549125671,2.8406031131744385,0.9980754852294922,,,,,,,
4369432000.0,72.82,-1.8200000524520874,12031147008.0,1434.584229941387,27.0,-0.014137312769889832,114688.0,80.92150926589966,4.8606951796870135e-15,0.0,2.632715940475464,-0.026327162981033325,0.18663915991783142,-0.026327159255743027,-3.725290298461914e-09,0.0,0.03238925337791443,0.6101804375648499,0.5021629972062911,-0.8116841316223145,0.6192732453346252,-0.7792949080467224,0.8647980093955994,2.855182647705078,0.9985795021057129,,,,,,,
4419064000.0,73.78,-1.8799999952316284,12031147008.0,1397.2553388898648,28.0,-0.014052119106054306,118784.0,83.85297060012817,4.4825254619240695e-15,0.0,2.6555838584899902,-0.026555843651294708,0.19281890988349915,-0.02655583806335926,-5.587935447692871e-09,0.0,0.061705876141786575,0.6179995536804199,0.47884636522937685,-0.903458833694458,0.6057491302490234,-0.8417528867721558,0.856062114238739,2.9314613342285156,0.9985489845275879,,,,,,,
4468432000.0,78.59,-2.009999990463257,12031147008.0,1452.0424412078921,29.0,-0.011008773930370808,122880.0,86.67382478713989,3.837208328860697e-15,0.0,2.6655921936035156,-0.02665591984987259,0.1627679169178009,-0.02665592171251774,1.862645149230957e-09,0.0,0.012305397540330887,0.5704943537712097,0.5472059751859475,-0.7300021052360535,0.5964934229850769,-0.7176966667175293,0.8478148579597473,2.8208541870117188,0.9983751773834229,,,,,,,
4518064000.0,87.51,-2.049999952316284,12031147008.0,1383.4084725797977,30.0,-0.015043938532471657,126976.0,89.63462781906128,3.316791286067655e-15,0.0,2.6779775619506836,-0.02677977830171585,0.19694076478481293,-0.026779774576425552,-3.725290298461914e-09,0.0,-0.014116920530796051,0.6275176405906677,0.39052994997959056,-0.8694593906402588,0.5827330350875854,-0.8835763931274414,0.8038032054901123,2.9608030319213867,0.9987869262695312,,,,,,,
4567432000.0,84.62,-2.2699999809265137,12031147008.0,1436.6328601579455,31.0,-0.013981828466057777,131072.0,92.48573899269104,3.1155633628543455e-15,0.0,2.6860580444335938,-0.02686057612299919,0.19130243360996246,-0.02686057984828949,3.725290298461914e-09,0.0,-0.03266245126724243,0.6177630424499512,0.4230645083459883,-0.7658623456954956,0.5131874084472656,-0.798524796962738,0.8133140206336975,2.8511111736297607,0.9987990856170654,,,,,,,
,,,,,,,,,,,,,,,,,,,,,,,,,,0.0020808354020118713,0.23526518046855927,0.20964762568473816,0.0020808354020118713,0.23526518046855927,0.20964762568473816,
,,,,,,,,,,,,,,,,,,,,,,,,,,0.00033877769601531327,0.1722766011953354,0.1715489774942398,0.00033877769601531327,0.1722766011953354,0.1715489774942398,
,,,,,,,,,,,,,,,,,,,,,,,,,,0.00024528364883735776,0.15825140476226807,0.15747621655464172,0.00024528364883735776,0.15825140476226807,0.15747621655464172,
,,,,,,,,,,,,,,,,,,,,,,,,,,0.00030124321347102523,0.15353061258792877,0.15195617079734802,0.00030124321347102523,0.15353061258792877,0.15195617079734802,
,,,,,,,,,,,,,,,,,,,,,,,,,,0.00035946874413639307,0.15219229459762573,0.15187868475914001,0.00035946874413639307,0.15219229459762573,0.15187868475914001,
,,,,,,,,,,,,,,,,,,,,,,,,,,0.0003165069210808724,0.14305512607097626,0.14051684737205505,0.0003165069210808724,0.14305512607097626,0.14051684737205505,
,,,,,,,,,,,,,,,,,,,,,,,,,,,,,,,,-1.73
4586196000.0,83.34,-2.4200000762939453,11990518784.0,16.154330980011466,32.0,-0.010788648389279842,135168.0,346.04003381729126,2.949029909160572e-15,0.0,2.6930956840515137,-0.026930952444672585,0.11546643823385239,-0.026930956169962883,3.725290298461914e-09,0.0,0.03089950606226921,0.4796188771724701,0.586306356477293,-0.6291366815567017,0.4722740352153778,-0.598237156867981,0.7456875443458557,253.55429482460022,0.998875617980957,,,,,,,
4586196000.0,82.66,-2.3499999046325684,12041169408.0,1425.5889340264282,33.0,-0.01514667458832264,139264.0,348.91323232650757,2.9976021664879227e-15,0.0,2.695486545562744,-0.026954876258969307,0.14449498057365417,-0.02695486508309841,-1.1175870895385742e-08,0.0,-0.05656145513057709,0.5346593260765076,0.5650633917243956,-0.695329487323761,0.49345219135284424,-0.7518908977508545,0.8107074499130249,2.8731985092163086,0.9988822937011719,,,,,,,
4586196000.0,79.27,-2.240000009536743,12041169408.0,1449.306996013363,34.0,-0.015529574826359749,143360.0,351.7394106388092,2.8796409701214998e-15,0.0,2.695946216583252,-0.02695946954190731,0.12267562001943588,-0.026959462091326714,-7.450580596923828e-09,0.0,0.020345594733953476,0.4949718117713928,0.6402735835399315,-0.739834189414978,0.5312590599060059,-0.7194885611534119,0.8252666592597961,2.8261783123016357,0.9985558986663818,,,,,,,
4586196000.0,73.05,-2.190000057220459,12041169408.0,1426.2706428096317,35.0,-0.01503025647252798,147456.0,354.6112358570099,2.942091015256665e-15,0.0,2.692725419998169,-0.026927245780825615,0.1306641846895218,-0.026927253231406212,7.916241884231567e-09,0.0,0.0227232426404953,0.5107599496841431,0.6698649183118459,-0.7901780605316162,0.6205849647521973,-0.7674548625946045,0.8889370560646057,2.8718252182006836,0.9983465671539307,,,,,,,
4586196000.0,77.48,-2.759999990463257,12041169408.0,1431.5497113588835,36.0,-0.017315076664090157,151552.0,357.47247076034546,2.8102520310824275e-15,0.0,2.6915135383605957,-0.02691512741148472,0.1358593851327896,-0.026915134862065315,7.450580596923828e-09,0.0,0.05328497290611267,0.5185992121696472,0.643770499566501,-0.8849445581436157,0.6793650984764099,-0.8316595554351807,0.868894100189209,2.8612349033355713,0.9986312389373779,,,,,,,
4586196000.0,75.77,-2.4700000286102295,12041169408.0,1434.8968385674475,37.0,-0.014824441634118557,155648.0,360.32703137397766,3.1086244689504383e-15,0.0,2.690011978149414,-0.026900116354227066,0.1329173445701599,-0.026900120079517365,2.7939677238464355e-09,0.0,0.12738516926765442,0.49966853857040405,0.7150326454678853,-0.9460850954055786,0.7597098350524902,-0.8187000155448914,0.9360186457633972,2.854560613632202,0.9985160827636719,,,,,,,
4586196000.0,74.15,-2.0,12041169408.0,1448.2412656814618,38.0,-0.01015071477741003,159744.0,363.1552894115448,3.191891195797325e-15,0.0,2.6839685440063477,-0.02683967910706997,0.11244440078735352,-0.026839684695005417,6.05359673500061e-09,0.0,0.08847346156835556,0.4659551978111267,0.7077409987487777,-0.739052414894104,0.6882080435752869,-0.6505790948867798,0.8619066476821899,2.8282580375671387,0.998516321182251,,,,,,,
4586196000.0,77.66,-2.049999952316284,12041169408.0,1387.932536270516,39.0,-0.016835320740938187,163840.0,366.10644149780273,3.622102617839573e-15,0.0,2.686796188354492,-0.026867954060435295,0.1259591430425644,-0.026867961511015892,7.450580596923828e-09,0.0,0.03038952685892582,0.5010549426078796,0.6595559711592592,-0.7826355695724487,0.6886863708496094,-0.7522460222244263,0.8587416410446167,2.9511520862579346,0.998774528503418,,,,,,,
4586196000.0,77.09,-2.240000009536743,12041169408.0,1438.0547494547195,40.0,-0.015377234667539597,167936.0,368.9547336101532,3.3792413312028202e-15,0.0,2.6856069564819336,-0.026856061071157455,0.1236552745103836,-0.026856068521738052,7.916241884231567e-09,0.0,-0.00036215921863913536,0.4973638653755188,0.6885709671233736,-0.6755223274230957,0.6959075927734375,-0.6758844256401062,0.8912399411201477,2.848292112350464,0.998751163482666,,,,,,,
4586196000.0,76.84,-2.2699999809265137,12041169408.0,1396.404011530256,41.0,-0.012838074006140232,172032.0,371.88798213005066,3.219646771412954e-15,0.0,2.6823570728302,-0.02682356908917427,0.10762350261211395,-0.02682357095181942,1.862645149230957e-09,0.0,0.011550595983862877,0.46386000514030457,0.6933880040548489,-0.5739482641220093,0.6521831750869751,-0.5623977184295654,0.8377074003219604,2.933248519897461,0.9979052543640137,,,,,,,
4586196000.0,81.96,-2.3299999237060547,12041169408.0,1430.8827309379442,42.0,-0.011028975248336792,176128.0,374.7505507469177,3.740063814205996e-15,0.0,2.6790223121643066,-0.026790210977196693,0.10002252459526062,-0.02679022215306759,1.1175870895385742e-08,0.0,0.013202535919845104,0.44712361693382263,0.7147805087737367,-0.5135124325752258,0.6804912686347961,-0.5003098845481873,0.8372170329093933,2.8625686168670654,0.9984474182128906,,,,,,,
4586196000.0,86.61,-1.9800000190734863,12041169408.0,1449.7947515511362,43.0,-0.010809495113790035,180224.0,377.5757782459259,4.003741782554471e-15,0.0,2.675370693206787,-0.026753701269626617,0.10804080963134766,-0.026753706857562065,5.587935447692871e-09,0.0,0.02225622721016407,0.46436938643455505,0.6921636883351945,-0.47998756170272827,0.6768432855606079,-0.45773136615753174,0.8369579911231995,2.8252274990081787,0.9983320236206055,,,,,,,
4586196000.0,83.58,-1.9700000286102295,12041169408.0,1457.8514113942053,44.0,-0.014707902446389198,184320.0,380.38539242744446,3.767819389821625e-15,0.0,2.6756980419158936,-0.026756970211863518,0.1321537345647812,-0.026756979525089264,9.313225746154785e-09,0.0,-0.04636006057262421,0.5120763778686523,0.6514555428478992,-0.550495445728302,0.6905024647712708,-0.5968555212020874,0.8673725724220276,2.8096141815185547,0.9986417293548584,,,,,,,
4586196000.0,75.88,-2.3399999141693115,12041169408.0,1407.0135642709527,45.0,-0.013495475053787231,188416.0,383.29652285575867,4.385380947269368e-15,0.0,2.674454689025879,-0.026744551956653595,0.13375990092754364,-0.026744546368718147,-6.51925802230835e-09,0.0,0.05828884243965149,0.5139909386634827,0.6273439210891003,-0.658373236656189,0.753669023513794,-0.6000843644142151,0.8419792056083679,2.911130428314209,0.9985148906707764,,,,,,,
4586196000.0,75.08,-1.8700000047683716,12041169408.0,1414.4587755403143,46.0,-0.011594951152801514,192512.0,386.192330121994,4.517219931443606e-15,0.0,2.6703529357910156,-0.026703521609306335,0.09781216830015182,-0.026703529059886932,7.450580596923828e-09,0.0,0.0061281719245016575,0.44230595231056213,0.6736108549637714,-0.479545533657074,0.6657826900482178,-0.47341734170913696,0.7742031216621399,2.8958072662353516,0.9985511302947998,,,,,,,
4586196000.0,80.69,-1.6100000143051147,12041169408.0,1427.2078720002446,47.0,-0.009683046489953995,196608.0,389.062269449234,4.990799440385274e-15,0.0,2.6626861095428467,-0.02662685513496399,0.08614116907119751,-0.026626860722899437,5.587935447692871e-09,0.0,0.018296990543603897,0.4147162437438965,0.679270516395356,-0.4537121653556824,0.6717591285705566,-0.43541520833969116,0.7322874069213867,2.8699393272399902,0.9982857704162598,,,,,,,
4586196000.0,80.55,-1.6200000047683716,12041169408.0,1442.9605192748825,48.0,-0.008250849321484566,200704.0,391.9008779525757,4.935288289154016e-15,0.0,2.646287441253662,-0.026462867856025696,0.0877465084195137,-0.026462873443961143,5.587935447692871e-09,0.0,0.023618798702955246,0.41830354928970337,0.615725093428223,-0.4021458625793457,0.6167702674865723,-0.37852707505226135,0.674793004989624,2.838608503341675,0.998384952545166,,,,,,,
4586196000.0,80.3,-1.4299999475479126,12041169408.0,1411.4457442039911,49.0,-0.008904512971639633,204800.0,394.80286693573,5.360295540768334e-15,0.0,2.643507719039917,-0.02643507346510887,0.08878597617149353,-0.02643507719039917,3.725290298461914e-09,0.0,0.029139263555407524,0.42043548822402954,0.5747915837616395,-0.34674930572509766,0.5539990663528442,-0.3176100552082062,0.6447605490684509,2.901988983154297,0.9986107349395752,,,,,,,
4586196000.0,74.87,-0.9900000095367432,12041169408.0,1437.6063775315308,50.0,-0.004473749548196793,208896.0,397.6520473957062,5.329070518200751e-15,0.0,2.622966766357422,-0.026229659095406532,0.06389844417572021,-0.02622966654598713,7.450580596923828e-09,0.0,0.007627880200743675,0.35744911432266235,0.6115423332473569,-0.1948121190071106,0.4519945979118347,-0.18718422949314117,0.5735118389129639,2.8491804599761963,0.998124361038208,,,,,,,
4586196000.0,74.05,-1.1200000047683716,12041169408.0,1461.366938337246,51.0,-0.010480863973498344,212992.0,400.4549026489258,5.464378949326942e-15,0.0,2.595623731613159,-0.02595623955130577,0.08705444633960724,-0.025956235826015472,-2.7939677238464355e-09,0.0,-0.019145432859659195,0.4168750047683716,0.4842721660075674,-0.27518367767333984,0.4311276078224182,-0.29432910680770874,0.5804910659790039,2.8028552532196045,0.9983665943145752,,,,,,,
4586196000.0,77.65,-1.0399999618530273,12041169408.0,1393.012213518127,52.0,-0.0018822201527655125,217088.0,403.3952932357788,6.3803129446426965e-15,0.0,2.597748279571533,-0.025977477431297302,0.047325700521469116,-0.02597748301923275,5.587935447692871e-09,0.0,0.04024144634604454,0.30504876375198364,0.5873876362878239,-0.1745854616165161,0.37230226397514343,-0.13434401154518127,0.4748955965042114,2.9403905868530273,0.9985666275024414,,,,,,,
4586196000.0,80.76,-0.6200000047683716,12041169408.0,1400.9630009214786,53.0,-0.004416188225150108,221184.0,406.31899642944336,7.0811412289373266e-15,0.0,2.5621795654296875,-0.025621792301535606,0.06416498124599457,-0.025621794164180756,1.862645149230957e-09,0.0,0.00917302817106247,0.3581579923629761,0.4390220075609823,-0.20134234428405762,0.3528808653354645,-0.19216930866241455,0.4781913459300995,2.923703193664551,0.9991333484649658,,,,,,,
4586196000.0,83.87,-0.33000001311302185,12041169408.0,1413.691050691496,54.0,0.00025383452884852886,225280.0,409.21637630462646,6.9735883734267645e-15,0.0,2.4970510005950928,-0.02497052028775215,0.028207862749695778,-0.024970509111881256,-1.1175870895385742e-08,0.0,0.05995357781648636,0.22985689342021942,0.4112043475972973,-0.06104225665330887,0.2917661964893341,-0.001088673248887062,0.29955407977104187,2.8973798751831055,0.9984121322631836,,,,,,,
4586196000.0,83.12,-0.3100000023841858,12041169408.0,1414.6315004273981,55.0,-0.004594373516738415,229376.0,412.111829996109,7.438494264988549e-15,0.0,2.512061357498169,-0.025120602920651436,0.05703223869204521,-0.025120612233877182,9.313225746154785e-09,0.0,-0.03200151398777962,0.336255818605423,0.38244989794616124,-0.06584565341472626,0.27354130148887634,-0.09784716367721558,0.4278915822505951,2.895453691482544,0.9988634586334229,,,,,,,
4586196000.0,82.75,-0.4000000059604645,12041169408.0,1438.7628943406526,56.0,-0.0019244494615122676,233472.0,414.95872020721436,8.352693536828326e-15,0.0,2.463589668273926,-0.024635901674628258,0.05016563832759857,-0.02463589608669281,-5.122274160385132e-09,0.0,-0.007808557245880365,0.316693514585495,0.29881617470517075,-0.012931257486343384,0.21956607699394226,-0.020739814266562462,0.3782014846801758,2.8468902111053467,1.0012516975402832,,,,,,,
4586196000.0,81.66,-0.33000001311302185,12041169408.0,1434.2161998040335,57.0,-0.0016770645743235946,237568.0,417.814635515213,8.238201787413857e-15,0.0,2.4137609004974365,-0.02413761243224144,0.03594472259283066,-0.02413760870695114,-3.725290298461914e-09,0.0,-0.007971875369548798,0.26803624629974365,0.38208420597961246,0.025192176923155785,0.19788996875286102,0.017220303416252136,0.34097999334335327,2.8559153079986572,0.9984426498413086,,,,,,,
4586196000.0,77.68,-0.3400000035762787,12041169408.0,1447.2454937924658,58.0,-0.0033720433712005615,241664.0,420.6448395252228,8.65453542164829e-15,0.0,2.395740270614624,-0.023957403376698494,0.05402341112494469,-0.023957401514053345,-1.862645149230957e-09,0.0,-0.04333373159170151,0.3258756399154663,0.3796901395727731,0.015123121440410614,0.20321163535118103,-0.028210610151290894,0.41375911235809326,2.8302040100097656,0.9984123706817627,,,,,,,
4586196000.0,79.78,-0.5899999737739563,12041169408.0,1396.9021210550936,59.0,-0.004301306791603565,245760.0,423.5770421028137,9.473324902309344e-15,0.0,2.3729794025421143,-0.02372978813946247,0.0521264411509037,-0.02372979372739792,5.587935447692871e-09,0.0,-0.054282352328300476,0.318325400352478,0.472166107478438,-0.004956575110554695,0.20818907022476196,-0.05923893302679062,0.4381498098373413,2.9322025775909424,0.9984142780303955,,,,,,,
4586196000.0,86.75,-0.3499999940395355,12041169408.0,1402.880351196377,60.0,0.0006554222200065851,249856.0,426.49674940109253,1.0602629885170245e-14,0.0,2.3232905864715576,-0.023232897743582726,0.023967895656824112,-0.023232905194163322,7.450580596923828e-09,0.0,0.016965704038739204,0.21831077337265015,0.34692410535637397,0.003754694014787674,0.19998402893543243,0.02072039246559143,0.2701427638530731,2.9197072982788086,0.9986019134521484,,,,,,,
4586196000.0,85.98,-0.41999998688697815,12041169408.0,1425.188261004893,61.0,-0.006847902666777372,253952.0,429.37075567245483,1.119764003743029e-14,0.0,2.2781565189361572,-0.02278156951069832,0.07331901788711548,-0.02278156392276287,-5.587935447692871e-09,0.0,-0.09544181078672409,0.3708941638469696,0.4293936092501468,-0.07037226110696793,0.2589544355869293,-0.16581407189369202,0.4910002052783966,2.8740062713623047,0.9984149932861328,,,,,,,
4586196000.0,92.34,-0.49000000953674316,12041169408.0,1452.9259965368,62.0,0.000529309269040823,258048.0,432.1898944377899,1.2507356261792779e-14,0.0,2.099285125732422,-0.02099282667040825,0.0391562357544899,-0.02099285088479519,2.421438694000244e-08,0.0,0.05339967459440231,0.27473512291908264,0.27187590354917057,-0.08683878183364868,0.2506873309612274,-0.03343911096453667,0.32196706533432007,2.819138765335083,0.998530387878418,,,,,,,
4633888000.0,89.38,-0.10000000149011612,12041169408.0,1362.0246391974808,63.0,-0.00159603008069098,262144.0,435.1971821784973,1.1926223897340549e-14,0.0,2.114254951477051,-0.021142546087503433,0.048115357756614685,-0.02114254981279373,3.725290298461914e-09,0.0,0.004670129623264074,0.31021347641944885,0.441740079215306,-0.07675932347774506,0.26930126547813416,-0.07208919525146484,0.41518571972846985,3.0072877407073975,0.9988114833831787,,,,,,,
,,,,,,,,,,,,,,,,,,,,,,,,,,0.02188432775437832,0.1896897256374359,0.15009748935699463,0.02188432775437832,0.1896897256374359,0.15009748935699463,
,,,,,,,,,,,,,,,,,,,,,,,,,,0.005358924623578787,0.13821901381015778,0.12339060008525848,0.005358924623578787,0.13821901381015778,0.12339060008525848,
,,,,,,,,,,,,,,,,,,,,,,,,,,0.004251738544553518,0.12258569151163101,0.11500449478626251,0.004251738544553518,0.12258569151163101,0.11500449478626251,
,,,,,,,,,,,,,,,,,,,,,,,,,,0.0041106389835476875,0.11643702536821365,0.11200141161680222,0.0041106389835476875,0.11643702536821365,0.11200141161680222,
,,,,,,,,,,,,,,,,,,,,,,,,,,0.004593922756612301,0.11409863829612732,0.11142610013484955,0.004593922756612301,0.11409863829612732,0.11142610013484955,
,,,,,,,,,,,,,,,,,,,,,,,,,,0.0032102002296596766,0.1105918362736702,0.1064625233411789,0.0032102002296596766,0.1105918362736702,0.1064625233411789,
,,,,,,,,,,,,,,,,,,,,,,,,,,,,,,,,-1.98
4636596000.0,81.16,-0.36000001430511475,11990521856.0,16.18343357396703,64.0,-0.003072040621191263,266240.0,688.2955114841461,7.147060721024445e-15,0.0,2.1638801097869873,-0.021638797596096992,0.07966253161430359,-0.02163880132138729,3.725290298461914e-09,0.0,0.06035369634628296,0.3946143686771393,0.6013856912194062,-0.35032108426094055,0.5606440305709839,-0.2899673879146576,0.6250237226486206,253.0983293056488,0.9982147216796875,,,,,,,
4636596000.0,88.07,-0.5699999928474426,12041169408.0,1441.522022563096,65.0,-0.003754262812435627,270336.0,691.1369526386261,7.592884654350485e-15,0.0,2.1512045860290527,-0.021512048318982124,0.057975128293037415,-0.021512044593691826,-3.725290298461914e-09,0.0,0.059125788509845734,0.3353831470012665,0.7303709743611368,-0.400371253490448,0.5575847029685974,-0.3412454426288605,0.6458890438079834,2.8414411544799805,0.9986591339111328,,,,,,,
4636596000.0,88.55,-0.4000000059604645,12041169408.0,1433.9069993222693,66.0,-0.0012131460243836045,274432.0,693.9934837818146,7.507883204027621e-15,0.0,2.160296678543091,-0.021602952852845192,0.03952211141586304,-0.021602965891361237,1.30385160446167e-08,0.0,0.07564565539360046,0.27081331610679626,0.5892215878697326,-0.2149222493171692,0.38258543610572815,-0.13927659392356873,0.4225384294986725,2.8565311431884766,0.9984052181243896,,,,,,,
4636596000.0,89.63,-0.2199999988079071,12041169408.0,1424.4519556804682,67.0,0.00013546139234676957,278528.0,696.8689756393433,7.173081573164097e-15,0.0,2.1364386081695557,-0.021364381536841393,0.032443057745695114,-0.02136438526213169,3.725290298461914e-09,0.0,0.06498026847839355,0.24633005261421204,0.6125290905688849,-0.19112947583198547,0.3576693534851074,-0.12614920735359192,0.3957289755344391,2.8754918575286865,0.9982476234436035,,,,,,,
4636596000.0,90.35,-0.05000000074505806,12041169408.0,1431.7609997668162,68.0,-0.0013614310882985592,282624.0,699.7297883033752,7.924216838262055e-15,0.0,2.1354355812072754,-0.021354347467422485,0.03716640546917915,-0.021354354918003082,8.381903171539307e-09,0.0,0.0592934787273407,0.26614731550216675,0.6170915535112698,-0.15449979901313782,0.3479974865913391,-0.09520632028579712,0.43010514974594116,2.8608126640319824,0.9979422092437744,,,,,,,
4636596000.0,87.13,-0.15000000596046448,12041169408.0,1425.3117029435316,69.0,-0.001777599798515439,286720.0,702.603545665741,7.521760991835436e-15,0.0,2.1632776260375977,-0.02163277566432953,0.060042738914489746,-0.02163277566432953,0.0,0.0,0.02411704510450363,0.3457355201244354,0.4962691741951484,-0.20073732733726501,0.344579815864563,-0.1766202747821808,0.4871297776699066,2.8737573623657227,0.9983723163604736,,,,,,,
4636596000.0,89.76,-0.28999999165534973,12041169408.0,1420.9677198008976,70.0,-0.0006863910239189863,290816.0,705.4860882759094,7.438494264988549e-15,0.0,2.154078960418701,-0.021540792658925056,0.046342633664608,-0.021540788933634758,-3.725290298461914e-09,0.0,0.06280607730150223,0.2979300916194916,0.5901222762153058,-0.1745935082435608,0.34472957253456116,-0.11178742349147797,0.46535801887512207,2.882542610168457,0.9984683990478516,,,,,,,
4636596000.0,85.44,-0.28999999165534973,12041169408.0,1424.6313828615705,71.0,-0.0022064815275371075,294912.0,708.3612179756165,8.364836601160164e-15,0.0,2.1164333820343018,-0.02116433158516884,0.03071564808487892,-0.021164333447813988,9.313225746154785e-10,0.0,0.046275872737169266,0.24352477490901947,0.6461734163662082,-0.1414434015750885,0.30971935391426086,-0.09516754746437073,0.409400075674057,2.8751296997070312,0.9986584186553955,,,,,,,
4636596000.0,82.51,-0.10000000149011612,12041169408.0,1415.523399035377,72.0,0.00041583608253858984,299008.0,711.2548472881317,8.503614479238308e-15,0.0,2.1533987522125244,-0.02153398096561432,0.019788067787885666,-0.021533986553549767,6.51925802230835e-09,0.0,0.062413766980171204,0.18891631066799164,0.5163800954847404,-0.09851598739624023,0.26773396134376526,-0.03610222041606903,0.27165478467941284,2.893629312515259,0.9984660148620605,,,,,,,
4636596000.0,84.7,0.05999999865889549,12041169408.0,1429.1800681602626,73.0,-0.0006963945925235748,303104.0,714.1208262443542,8.337081025544535e-15,0.0,2.2208175659179688,-0.02220817655324936,0.027710434049367905,-0.02220817469060421,-1.862645149230957e-09,0.0,0.016578571870923042,0.2348605841398239,0.4812777213217595,-0.05858940631151199,0.23191393911838531,-0.0420108325779438,0.3260938823223114,2.865978956222534,0.9987070560455322,,,,,,,
4636596000.0,82.74,-0.10000000149011612,12041169408.0,1409.866629048053,74.0,0.0,307200.0,717.0260655879974,7.998809947729058e-15,0.0,2.2323548793792725,-0.02232355624437332,0.03326094523072243,-0.022323548793792725,-7.450580596923828e-09,0.0,0.04394492879509926,0.25417810678482056,0.5836110161032086,-0.07034982740879059,0.2663933336734772,-0.02640489488840103,0.3939023017883301,2.9052393436431885,0.9984250068664551,,,,,,,
4636596000.0,80.14,0.10000000149011612,12041169408.0,1448.7633668201486,75.0,0.0019680142868310213,311296.0,719.8533043861389,9.435160985837854e-15,0.0,2.110426187515259,-0.021104227751493454,0.016854476183652878,-0.02110426127910614,3.3527612686157227e-08,0.0,0.07517759501934052,0.16752353310585022,0.5161323239769183,-0.07265280187129974,0.25229525566101074,0.0025247847661376,0.24083106219768524,2.8272387981414795,0.9989378452301025,,,,,,,
4636596000.0,76.31,-0.05000000074505806,12041169408.0,1393.6661676849512,76.0,-0.001694139325991273,315392.0,722.7923152446747,1.0614772949502083e-14,0.0,2.1255712509155273,-0.02125571481883526,0.03894801065325737,-0.02125571295619011,-1.862645149230957e-09,0.0,0.0023842304944992065,0.2791224718093872,0.5661635218872644,-0.04019615799188614,0.2590521574020386,-0.03781192749738693,0.42377153038978577,2.9390108585357666,0.9987988471984863,,,,,,,
4636596000.0,75.46,-0.10999999940395355,12041169408.0,1441.201201189109,77.0,0.000709217565599829,319488.0,725.634388923645,1.0026701691145945e-14,0.0,2.1610512733459473,-0.021610505878925323,0.019999533891677856,-0.02161051146686077,5.587935447692871e-09,0.0,0.03000636026263237,0.1977580189704895,0.608823304815988,0.0021501455921679735,0.2255629301071167,0.032156504690647125,0.31618964672088623,2.842073678970337,0.9985184669494629,,,,,,,
4636596000.0,77.34,0.05000000074505806,12041169408.0,1429.1310861753475,78.0,-0.001282496377825737,323584.0,728.5004661083221,1.0359768598533492e-14,0.0,2.149934768676758,-0.02149934321641922,0.032366011291742325,-0.02149934694170952,3.725290298461914e-09,0.0,-0.001030460000038147,0.2544538676738739,0.5571547332303245,0.0003777160309255123,0.22664089500904083,-0.0006527435034513474,0.38236933946609497,2.866077184677124,0.998760461807251,,,,,,,
4636596000.0,77.02,-0.27000001072883606,12041169408.0,1398.612382291381,79.0,-0.002718717325478792,327680.0,731.429083108902,1.1223660889569942e-14,0.0,2.090543270111084,-0.020905425772070885,0.03331794589757919,-0.020905431360006332,5.122274160385132e-09,0.0,-0.026210810989141464,0.25683650374412537,0.5371123758803684,-0.013268470764160156,0.22553499042987823,-0.03947928175330162,0.3775017261505127,2.928617000579834,0.9983723163604736,,,,,,,
4636596000.0,75.89,-0.2800000011920929,12041169408.0,1438.9658316720465,80.0,-0.00043104117503389716,331776.0,734.2755718231201,1.119764003743029e-14,0.0,2.129951000213623,-0.02129952423274517,0.04124961048364639,-0.021299509331583977,-1.4901161193847656e-08,0.0,-0.007070072926580906,0.287174791097641,0.28972116197716336,0.03729934245347977,0.21681836247444153,0.030229274183511734,0.3407468795776367,2.8464887142181396,0.998558521270752,,,,,,,
4636596000.0,77.97,0.05999999865889549,12041169408.0,1414.2600136010371,81.0,0.0011543423170223832,335872.0,737.17178606987,1.0817735596191369e-14,0.0,2.123924732208252,-0.021239254623651505,0.029046401381492615,-0.021239247173070908,-7.450580596923828e-09,0.0,0.01575954258441925,0.240538090467453,0.5453609081813455,0.08925400674343109,0.2353113889694214,0.10501354932785034,0.3567388653755188,2.896214246749878,0.9985265731811523,,,,,,,
4636596000.0,76.48,0.15000000596046448,12041169408.0,1464.542057228397,82.0,0.0015949711669236422,339968.0,739.968564748764,1.2123982373601905e-14,0.0,2.0507540702819824,-0.020507551729679108,0.012948324903845787,-0.020507540553808212,-1.1175870895385742e-08,0.0,0.03413169085979462,0.1572822779417038,0.636043850489041,0.06057941913604736,0.2212871015071869,0.09471111744642258,0.2607085406780243,2.796778678894043,0.9984819889068604,,,,,,,
4636596000.0,77.64,0.30000001192092896,12041169408.0,1394.5367983155686,83.0,0.0033493349328637123,344064.0,742.905740737915,1.061650767297806e-14,0.0,2.079866409301758,-0.020798657089471817,0.016035087406635284,-0.020798664540052414,7.450580596923828e-09,0.0,0.05610547959804535,0.17008647322654724,0.6475192478492324,0.12623783946037292,0.24711288511753082,0.18234331905841827,0.28648513555526733,2.937175989151001,0.9985179901123047,,,,,,,
4636596000.0,79.35,0.3499999940395355,12041169408.0,1421.4209422901185,84.0,0.002046846318989992,348160.0,745.7873642444611,1.1123046927963287e-14,0.0,2.0620012283325195,-0.02062002569437027,0.026448700577020645,-0.020620012655854225,-1.30385160446167e-08,0.0,0.035988613963127136,0.22718895971775055,0.5684760950850447,0.06868933886289597,0.25331053137779236,0.1046779453754425,0.34584757685661316,2.8816235065460205,0.9988694190979004,,,,,,,
4636596000.0,80.05,0.10999999940395355,12041169408.0,1389.7555616531972,85.0,0.00014679029118269682,352256.0,748.7346451282501,1.2325210296815214e-14,0.0,2.0373735427856445,-0.020373735576868057,0.028497323393821716,-0.020373735576868057,0.0,0.0,-0.011061533354222775,0.23850825428962708,0.5548875640364882,0.07613041996955872,0.21948343515396118,0.06506888568401337,0.3574937880039215,2.9472808837890625,0.9985144138336182,,,,,,,
4636596000.0,77.86,0.0,12041169408.0,1434.0792397418938,86.0,0.0,356352.0,751.5908331871033,1.1633055629900468e-14,0.0,2.0458884239196777,-0.02045888453722,0.02745293453335762,-0.02045888453722,0.0,0.0,-0.008187169209122658,0.23420554399490356,0.5706757657038342,0.08973367512226105,0.2359931617975235,0.08154650032520294,0.3574410676956177,2.8561880588531494,0.9982020854949951,,,,,,,
4636596000.0,78.32,0.07000000029802322,12041169408.0,1450.4514403227558,87.0,0.0005915679503232241,360448.0,754.4147815704346,1.1818671041829987e-14,0.0,2.12507963180542,-0.02125079184770584,0.04363712668418884,-0.02125079557299614,3.725290298461914e-09,0.0,-0.007095504552125931,0.29537299275398254,0.5859160106517853,0.1292571723461151,0.26442936062812805,0.12216167151927948,0.4590146839618683,2.823948383331299,0.9986603260040283,,,,,,,
4636596000.0,75.13,0.10000000149011612,12041169408.0,1449.092575537056,88.0,0.0010393928969278932,364544.0,757.241378068924,1.1107434416679496e-14,0.0,2.060274600982666,-0.020602742210030556,0.0278439000248909,-0.020602745935320854,3.725290298461914e-09,0.0,0.004226770251989365,0.2359735667705536,0.6300976590931096,0.053622372448444366,0.26835960149765015,0.05784914270043373,0.3879893720149994,2.82659649848938,0.9985859394073486,,,,,,,
4636596000.0,74.69,0.23999999463558197,12041169408.0,1427.0075261514826,89.0,0.00298139126971364,368640.0,760.1117203235626,1.1064066329780076e-14,0.0,2.131988048553467,-0.021319877356290817,0.017890140414237976,-0.021319879218935966,1.862645149230957e-09,0.0,0.028070861473679543,0.1870851367712021,0.6687736078553156,0.13780120015144348,0.27905672788619995,0.16587205231189728,0.32506993412971497,2.870342254638672,0.998894214630127,,,,,,,
4636596000.0,76.53,0.20999999344348907,12041169408.0,1437.7999638454999,90.0,0.0007484960369765759,372736.0,762.960517168045,1.211530875622202e-14,0.0,2.053439140319824,-0.02053438499569893,0.025556117296218872,-0.020534390583634377,5.587935447692871e-09,0.0,0.000856247846968472,0.22610612213611603,0.6065691746744448,0.106947161257267,0.27079248428344727,0.10780341178178787,0.3604774475097656,2.848796844482422,0.9985055923461914,,,,,,,
4636596000.0,76.06,0.17000000178813934,12041169408.0,1421.7383112649122,91.0,0.002405183855444193,376832.0,765.8414974212646,1.0519363158323358e-14,0.0,2.114168643951416,-0.02114168554544449,0.012457877397537231,-0.02114168554544449,0.0,0.0,0.024048160761594772,0.15602366626262665,0.7500843103220353,0.13944470882415771,0.2791876196861267,0.16349287331104279,0.31209996342658997,2.8809802532196045,0.9982719421386719,,,,,,,
4636596000.0,75.99,0.1599999964237213,12041169408.0,1354.7509564748639,92.0,-0.0009053167887032032,380928.0,768.864931344986,1.0253950466498907e-14,0.0,2.087221622467041,-0.020872214809060097,0.0458114929497242,-0.020872216671705246,1.862645149230957e-09,0.0,-0.024548104032874107,0.3017326593399048,0.3843220258856682,0.0919206440448761,0.28031644225120544,0.06737254559993744,0.3845435678958893,3.0234339237213135,0.9984898567199707,,,,,,,
4636596000.0,76.69,-0.03999999910593033,12041169408.0,1451.2148766369266,93.0,0.0007572477916255593,385024.0,771.6873941421509,1.0998146837692957e-14,0.0,2.144528865814209,-0.02144528180360794,0.026790369302034378,-0.02144528739154339,4.889443516731262e-09,0.0,-0.010995054617524147,0.2312420904636383,0.6555736500613882,0.08786048740148544,0.27717483043670654,0.07686542719602585,0.3940204083919525,2.822462797164917,0.9987201690673828,,,,,,,
4636596000.0,74.76,0.20000000298023224,12041169408.0,1361.6223103593616,94.0,0.00243235076777637,389120.0,774.6955704689026,9.867107131356079e-15,0.0,2.116309642791748,-0.021163098514080048,0.02153448387980461,-0.0211630966514349,-2.7939677238464355e-09,0.0,0.018683576956391335,0.20671314001083374,0.6385155495349071,0.09258922934532166,0.2711981534957886,0.11127281188964844,0.34381377696990967,3.008176326751709,0.9985833168029785,,,,,,,
4636596000.0,76.72,0.20999999344348907,12041169408.0,1404.236066794738,95.0,0.000915864366106689,393216.0,777.6124589443207,1.2118778203173974e-14,0.0,2.0219311714172363,-0.020219307392835617,0.016864879056811333,-0.020219311118125916,3.725290298461914e-09,0.0,0.009315998293459415,0.1834425926208496,0.7455011620227376,0.10886044800281525,0.27059265971183777,0.11817645281553268,0.36362797021865845,2.916888475418091,0.9984440803527832,,,,,,,
,,,,,,,,,,,,,,,,,,,,,,,,,,0.0027074734680354595,0.041803013533353806,0.03397107124328613,0.0027074734680354595,0.041803013533353806,0.03397107124328613,
,,,,,,,,,,,,,,,,,,,,,,,,,,0.001040476025082171,0.033371854573488235,0.03093785233795643,0.001040476025082171,0.033371854573488235,0.03093785233795643,
,,,,,,,,,,,,,,,,,,,,,,,,,,0.0009630786953493953,0.03128692880272865,0.02949518710374832,0.0009630786953493953,0.03128692880272865,0.02949518710374832,
,,,,,,,,,,,,,,,,,,,,,,,,,,0.0009470885270275176,0.030380962416529655,0.02886437252163887,0.0009470885270275176,0.030380962416529655,0.02886437252163887,
,,,,,,,,,,,,,,,,,,,,,,,,,,0.0009366151643916965,0.029633808881044388,0.02830626256763935,0.0009366151643916965,0.029633808881044388,0.02830626256763935,
,,,,,,,,,,,,,,,,,,,,,,,,,,0.0009285212145186961,0.028904706239700317,0.027819812297821045,0.0009285212145186961,0.028904706239700317,0.027819812297821045,
,,,,,,,,,,,,,,,,,,,,,,,,,,,,,,,,-1.22
4636860000.0,76.28,0.20999999344348907,11990521856.0,16.203585144456245,96.0,0.0030648689717054367,397312.0,1030.3960227966309,9.645062526431047e-15,0.0,2.119520425796509,-0.02119520679116249,0.019531045109033585,-0.021195203065872192,-3.725290298461914e-09,0.0,0.061955761164426804,0.18770235776901245,0.7332512626829529,0.06939737498760223,0.3362974226474762,0.13135313987731934,0.36342811584472656,252.78356385231018,0.9990456104278564,,,,,,,
4636860000.0,75.53,0.27000001072883606,12041169408.0,1437.8797476443242,97.0,0.0010766771156340837,401408.0,1033.2446615695953,1.0411810302812796e-14,0.0,2.0845305919647217,-0.020845305174589157,0.021046791225671768,-0.020845305174589157,0.0,0.0,0.021619968116283417,0.20404979586601257,0.708848199456676,0.049578599631786346,0.3003137707710266,0.07119857519865036,0.3781607449054718,2.8486387729644775,0.9994759559631348,,,,,,,
4636860000.0,78.14,0.1899999976158142,12041169408.0,1428.884562797501,98.0,0.002160789677873254,405504.0,1036.1112332344055,1.0536710393083126e-14,0.0,2.0698134899139404,-0.020698152482509613,0.022284764796495438,-0.02069813385605812,-1.862645149230957e-08,0.0,0.045026544481515884,0.20628264546394348,0.7797870558273328,0.02583073452115059,0.3808726668357849,0.07085727900266647,0.4395833909511566,2.8665716648101807,0.9985439777374268,,,,,,,
4636860000.0,72.8,0.25999999046325684,12041169408.0,1398.3650061620506,99.0,0.0030986075289547443,409600.0,1039.0403683185577,1.0652936865973572e-14,0.0,2.050778388977051,-0.020507803186774254,0.013617949560284615,-0.020507782697677612,-2.0489096641540527e-08,0.0,0.04606682434678078,0.1584925353527069,0.8118090615655496,0.05067957565188408,0.33672481775283813,0.09674639999866486,0.36535027623176575,2.9291350841522217,0.9986951351165771,,,,,,,
4636860000.0,71.77,0.25,12041169408.0,1375.9332217201122,100.0,0.0014000324299558997,413696.0,1042.017256975174,1.222980050563649e-14,0.0,2.019430160522461,-0.02019430324435234,0.012398616410791874,-0.02019430138170719,-2.7939677238464355e-09,0.0,0.03661279007792473,0.15317462384700775,0.7578145753743151,0.01676611602306366,0.2985132336616516,0.05337890610098839,0.3112524747848511,2.976888656616211,0.9985761642456055,,,,,,,
4636860000.0,73.09,0.2199999988079071,12041169408.0,1429.811427742498,101.0,0.0018736107740551233,417792.0,1044.8819704055786,1.3029508028061798e-14,0.0,2.024564266204834,-0.020245641469955444,0.01613784022629261,-0.020245641469955444,0.0,0.0,0.021195080131292343,0.17842146754264832,0.7710718424546847,0.04582403600215912,0.32183340191841125,0.06701911985874176,0.3729044198989868,2.864713430404663,0.9985451698303223,,,,,,,
4636860000.0,76.78,0.20000000298023224,12041169408.0,1438.1446741028856,102.0,0.000156669644638896,421888.0,1047.7300844192505,1.424554918472154e-14,0.0,1.9323092699050903,-0.019323086366057396,0.030379731208086014,-0.019323091953992844,5.820766091346741e-09,0.0,-0.008598227985203266,0.24637441337108612,0.7100722227801244,0.09636758267879486,0.3463091552257538,0.08776935189962387,0.4575628340244293,2.848114013671875,0.9987857341766357,,,,,,,
4636860000.0,81.46,0.3100000023841858,12041169408.0,1347.048438678211,103.0,0.004558456130325794,425984.0,1050.7708065509796,1.3490944472671629e-14,0.0,1.9306309223175049,-0.019306328147649765,0.011798562481999397,-0.019306309521198273,-1.862645149230957e-08,0.0,0.046751171350479126,0.146344393491745,0.8154245890175591,0.16173601150512695,0.3343316316604614,0.20848721265792847,0.34063491225242615,3.040722131729126,0.9980971813201904,,,,,,,
4636860000.0,82.02,0.44999998807907104,12041169408.0,1458.3154735580265,104.0,0.0029966935981065035,430080.0,1053.5795266628265,1.4030443473700416e-14,0.0,1.9236154556274414,-0.019236164167523384,0.023994874209165573,-0.019236154854297638,-9.313225746154785e-09,0.0,0.01454973965883255,0.21860861778259277,0.7168818132372304,0.16851136088371277,0.3456999659538269,0.18306109309196472,0.4108501076698303,2.808720111846924,1.0010037422180176,,,,,,,
4636860000.0,79.66,0.3700000047683716,12041169408.0,1420.9633712058521,105.0,0.003006954211741686,434176.0,1056.4620780944824,1.4353102040232102e-14,0.0,1.871733546257019,-0.018717333674430847,0.014578990638256073,-0.018717335537075996,1.862645149230957e-09,0.0,0.021771201863884926,0.1693841814994812,0.7593404375770765,0.08457447588443756,0.313869833946228,0.10634566843509674,0.34527987241744995,2.882551431655884,0.9990317821502686,,,,,,,
4636860000.0,77.83,0.23000000417232513,12041169408.0,1455.4393421974048,106.0,0.0007937995251268148,438272.0,1059.2763485908508,1.4349632593280148e-14,0.0,1.8989369869232178,-0.018989374861121178,0.03255214914679527,-0.01898936927318573,-5.587935447692871e-09,0.0,-0.015901289880275726,0.25469058752059937,0.697548424168073,0.1552635133266449,0.3691967725753784,0.13936221599578857,0.4631108045578003,2.814270496368408,0.998558759689331,,,,,,,
4636860000.0,75.98,0.23000000417232513,12041169408.0,1424.5615674409414,107.0,0.003503525396808982,442368.0,1062.151619195938,1.2986139941162378e-14,0.0,1.9652299880981445,-0.01965229958295822,0.0283876433968544,-0.01965229958295822,0.0,0.0,0.011545155197381973,0.23802486062049866,0.6049984100548977,0.10628879815340042,0.3653923571109772,0.1178339496254921,0.37872403860092163,2.8752706050872803,0.9985857009887695,,,,,,,
4636860000.0,76.94,0.41999998688697815,12041169408.0,1422.6194054217117,108.0,0.004792867228388786,446464.0,1065.0308151245117,1.231653667943533e-14,0.0,1.9660248756408691,-0.019660236313939095,0.012351034209132195,-0.01966024748980999,1.1175870895385742e-08,0.0,0.021491266787052155,0.15571163594722748,0.835860486065131,0.22752715647220612,0.38832664489746094,0.24901841580867767,0.3843390643596649,2.8791959285736084,0.9985859394073486,,,,,,,
4636860000.0,75.42,0.33000001311302185,12041169408.0,1444.7293621193787,109.0,0.0006412430666387081,450560.0,1067.8659482002258,1.4228201949961772e-14,0.0,2.000236988067627,-0.020002366974949837,0.03399398922920227,-0.020002368837594986,1.862645149230957e-09,0.0,-0.021172087639570236,0.2599157989025116,0.5639609537058428,0.09335505217313766,0.30659812688827515,0.07218296080827713,0.39361345767974854,2.8351330757141113,0.9984085559844971,,,,,,,
4636860000.0,76.31,0.23000000417232513,12041169408.0,1404.639169650798,110.0,0.0030553920660167933,454656.0,1070.7819995880127,1.13988679606436e-14,0.0,2.0897135734558105,-0.020897142589092255,0.026172641664743423,-0.020897135138511658,-6.51925802230835e-09,0.0,-0.00103536038659513,0.22881650924682617,0.7380369890207759,0.18266510963439941,0.3982033431529999,0.1816297471523285,0.44706159830093384,2.9160513877868652,0.9985275268554688,,,,,,,
4636860000.0,74.17,0.3199999928474426,12041169408.0,1451.1606953089226,111.0,0.0024209218099713326,458752.0,1073.6045677661896,1.1391929066739692e-14,0.0,2.0957837104797363,-0.020957818254828453,0.0109573844820261,-0.020957836881279945,1.862645149230957e-08,0.0,-0.011693956330418587,0.14759178459644318,0.798023188575454,0.18180066347122192,0.35893088579177856,0.1701067090034485,0.32840627431869507,2.82256817817688,0.9996709823608398,,,,,,,
4636860000.0,77.66,0.3499999940395355,12041169408.0,1449.3780352594686,112.0,0.003239125944674015,462848.0,1076.4306075572968,1.2266229698632003e-14,0.0,2.118342399597168,-0.021183423697948456,0.012949937023222446,-0.021183423697948456,0.0,0.0,-0.016029536724090576,0.16015364229679108,0.8278207914790012,0.2102738618850708,0.3624636232852936,0.19424431025981903,0.38596370816230774,2.8260397911071777,0.9981913566589355,,,,,,,
4636860000.0,83.62,0.33000001311302185,12041169408.0,1442.1400029766398,113.0,0.0014629653887823224,466944.0,1079.2708311080933,1.1428358259735205e-14,0.0,2.1162333488464355,-0.021162329241633415,0.010549996048212051,-0.021162332966923714,3.725290298461914e-09,0.0,-0.02607259526848793,0.1429167538881302,0.8301546855015278,0.17173296213150024,0.3214387893676758,0.1456603705883026,0.346781849861145,2.840223550796509,0.9984798431396484,,,,,,,
4636860000.0,85.3,0.36000001430511475,12041169408.0,1418.3167328470292,114.0,0.00391320139169693,471040.0,1082.1587615013123,1.1554993073481512e-14,0.0,2.1199865341186523,-0.021199867129325867,0.022722231224179268,-0.021199865266680717,-1.862645149230957e-09,0.0,-0.010661921463906765,0.21293626725673676,0.7572710853998228,0.22566016018390656,0.3966674506664276,0.2149982452392578,0.43220412731170654,2.887930393218994,0.9989092350006104,,,,,,,
4636860000.0,87.15,0.49000000953674316,12041169408.0,1389.7518516885655,115.0,0.004579269327223301,475136.0,1085.1060502529144,1.1664280652468051e-14,0.0,2.0815787315368652,-0.020815789699554443,0.01170358806848526,-0.020815785974264145,-4.6566128730773926e-09,0.0,0.01911279931664467,0.1518140435218811,0.7235150448072107,0.13726206123828888,0.29107600450515747,0.15637487173080444,0.2887195348739624,2.947288751602173,0.9986376762390137,,,,,,,
4636860000.0,85.03,0.3799999952316284,12041169408.0,1423.6796003722477,116.0,0.0019690855406224728,479232.0,1087.9831020832062,1.177877240188252e-14,0.0,2.074861526489258,-0.02074860967695713,0.011235913261771202,-0.020748615264892578,5.587935447692871e-09,0.0,-0.008846733719110489,0.1496630609035492,0.7789994055440367,0.13048043847084045,0.2712540626525879,0.12163370847702026,0.31835952401161194,2.877051830291748,0.9986097812652588,,,,,,,
4636860000.0,87.69,0.4099999964237213,12041169408.0,1376.3313731277185,117.0,0.0034573141019791365,483328.0,1090.9591295719147,1.2304393615103493e-14,0.0,2.0277609825134277,-0.0202776025980711,0.009659802541136742,-0.020277610048651695,7.450580596923828e-09,0.0,0.02574118785560131,0.13660728931427002,0.7171709485353535,0.11319252848625183,0.2497916966676712,0.1389337182044983,0.2568691074848175,2.976027488708496,0.9984514713287354,,,,,,,
4636860000.0,87.99,0.3100000023841858,12041169408.0,1411.283882489596,118.0,0.002312256256118417,487424.0,1093.8614513874054,1.3083284455817079e-14,0.0,2.03808856010437,-0.02038087695837021,0.014802966266870499,-0.020380884408950806,8.381903171539307e-09,0.0,-0.007056135684251785,0.17193999886512756,0.6384702354577125,0.1115422248840332,0.24146728217601776,0.10448608547449112,0.28595972061157227,2.9023218154907227,0.9985103607177734,,,,,,,
4636860000.0,83.57,0.3199999928474426,12041169408.0,1419.4922544955818,119.0,0.0023190309293568134,491520.0,1096.7469902038574,1.1705914015891494e-14,0.0,2.102407455444336,-0.021024074405431747,0.02143208682537079,-0.021024074405431747,9.313225746154785e-10,0.0,-0.004515486303716898,0.20701268315315247,0.6157275965077866,0.09555505216121674,0.24837608635425568,0.09103956073522568,0.3339468538761139,2.8855388164520264,0.9984302520751953,,,,,,,
4636860000.0,83.03,0.3400000035762787,12041169408.0,1405.9998993368426,120.0,0.0031567940022796392,495616.0,1099.6602194309235,1.186550857568136e-14,0.0,2.109933853149414,-0.021099328994750977,0.01379473228007555,-0.021099338307976723,9.313225746154785e-09,0.0,0.015522327274084091,0.16539408266544342,0.7606534062272123,0.10892213881015778,0.28795602917671204,0.12444446980953217,0.3380697965621948,2.91322922706604,0.998457670211792,,,,,,,
4636860000.0,80.73,0.28999999165534973,12041169408.0,1383.0473001753135,121.0,0.0008328112890012562,499712.0,1102.6217956542969,1.2495213197460942e-14,0.0,2.0864744186401367,-0.02086474560201168,0.049439236521720886,-0.02086474373936653,-1.862645149230957e-09,0.0,-0.025668330490589142,0.313438355922699,0.32834081332891996,0.06025935336947441,0.2219143956899643,0.03459102287888527,0.3824526071548462,2.961576223373413,0.9990274906158447,,,,,,,
4636860000.0,82.96,0.3100000023841858,12041169408.0,1447.4951011017308,122.0,0.004174292087554932,503808.0,1105.4515116214752,1.0810796702287462e-14,0.0,2.1248621940612793,-0.021248631179332733,0.012683513574302197,-0.021248621866106987,-1.0244548320770264e-08,0.0,0.026898682117462158,0.15700159966945648,0.7163351310702604,0.11324108392000198,0.2371002733707428,0.14013975858688354,0.29478225111961365,2.8297159671783447,0.9986207485198975,,,,,,,
4636860000.0,87.71,0.33000001311302185,12041169408.0,1378.4531041949183,123.0,0.002176153939217329,507904.0,1108.4229583740234,1.0729264698916552e-14,0.0,2.107771635055542,-0.02107771299779415,0.032981421798467636,-0.02107771672308445,3.725290298461914e-09,0.0,0.009528733789920807,0.25668683648109436,0.44610010438875913,0.039713092148303986,0.1820061206817627,0.04924182593822479,0.3448958396911621,2.9714467525482178,0.9988300800323486,,,,,,,
4636860000.0,82.29,0.27000001072883606,12041169408.0,1440.8839063113041,124.0,0.002183201489970088,512000.0,1111.265657901764,1.0654671589449549e-14,0.0,2.1082167625427246,-0.02108217403292656,0.015027979388833046,-0.021082166582345963,-8.381903171539307e-09,0.0,0.022763483226299286,0.17188657820224762,0.6457830017802112,0.05651063472032547,0.22296777367591858,0.07927411794662476,0.2888067066669464,2.8426995277404785,0.9984595775604248,,,,,,,
4636860000.0,77.54,0.27000001072883606,12041169408.0,1383.9457353806326,125.0,0.0006727685686200857,516096.0,1114.2253115177155,1.0647732695545642e-14,0.0,2.1174521446228027,-0.02117452584207058,0.05301450565457344,-0.021174520254135132,-5.587935447692871e-09,0.0,-0.029248591512441635,0.324344277381897,0.5033905585451972,0.06367388367652893,0.22353319823741913,0.034425292164087296,0.4602552652359009,2.959653615951538,0.9987504482269287,,,,,,,
4636860000.0,79.07,0.2800000011920929,12041169408.0,1442.2915840469918,126.0,0.00421494385227561,520192.0,1117.065236568451,1.1636525076852422e-14,0.0,2.168092727661133,-0.021680923178792,0.014876783825457096,-0.0216809269040823,3.725290298461914e-09,0.0,0.027096770703792572,0.170371413230896,0.6505122472527338,0.10720522701740265,0.21021302044391632,0.13430200517177582,0.2881912291049957,2.8399250507354736,0.9984054565429688,,,,,,,
4636860000.0,82.72,0.4399999976158142,12041169408.0,1446.9424713864526,127.0,0.005577524658292532,524288.0,1119.8960332870483,1.1926223897340549e-14,0.0,2.091973304748535,-0.020919736474752426,0.021309763193130493,-0.020919732749462128,-3.725290298461914e-09,0.0,0.04376347362995148,0.20177766680717468,0.7049846994557512,0.1447020322084427,0.26680639386177063,0.18846550583839417,0.3714931607246399,2.830796718597412,0.9985156059265137,,,,,,,
,,,,,,,,,,,,,,,,,,,,,,,,,,0.002360433340072632,0.025802006945014,0.020828749984502792,0.002360433340072632,0.025802006945014,0.020828749984502792,
,,,,,,,,,,,,,,,,,,,,,,,,,,0.0009573954157531261,0.019399132579565048,0.018201133236289024,0.0009573954157531261,0.019399132579565048,0.018201133236289024,
,,,,,,,,,,,,,,,,,,,,,,,,,,0.0008583107264712453,0.018115561455488205,0.017636332660913467,0.0008583107264712453,0.018115561455488205,0.017636332660913467,
,,,,,,,,,,,,,,,,,,,,,,,,,,0.0009821184212341905,0.017931992188096046,0.017348546534776688,0.0009821184212341905,0.017931992188096046,0.017348546534776688,
,,,,,,,,,,,,,,,,,,,,,,,,,,0.0010058878688141704,0.017616815865039825,0.017177823930978775,0.0010058878688141704,0.017616815865039825,0.017177823930978775,
,,,,,,,,,,,,,,,,,,,,,,,,,,0.0007924939855001867,0.01737377792596817,0.017020048573613167,0.0007924939855001867,0.01737377792596817,0.017020048573613167,
,,,,,,,,,,,,,,,,,,,,,,,,,,,,,,,,-1.33
4636980000.0,80.21,0.550000011920929,11990521856.0,16.213622593508955,128.0,0.0037292076740413904,528384.0,1372.5231051445007,1.0691100782445062e-14,0.0,2.1086840629577637,-0.02108684554696083,0.014830561354756355,-0.021086839959025383,-5.587935447692871e-09,0.0,0.023183779790997505,0.1706773191690445,0.6679504988326398,0.08306057751178741,0.23961898684501648,0.10624436289072037,0.2961927354335785,252.6270718574524,0.9990496635437012,,,,,,,
4636980000.0,76.92,0.49000000953674316,12041169408.0,1442.8772622816414,129.0,0.00509961461648345,532480.0,1375.3618774414062,1.0600895161694268e-14,0.0,2.1084961891174316,-0.021084941923618317,0.006258207373321056,-0.02108496055006981,1.862645149230957e-08,0.0,0.04167507588863373,0.10383754223585129,0.9009370903440599,0.15845447778701782,0.29191818833351135,0.20012955367565155,0.32991260290145874,2.8387722969055176,0.9988183975219727,,,,,,,
4636980000.0,74.02,0.5299999713897705,12041169408.0,1395.4407066799477,130.0,0.004771642852574587,536576.0,1378.297150850296,1.1469991623158649e-14,0.0,2.0537562370300293,-0.020537571981549263,0.012211955152451992,-0.020537562668323517,-8.847564458847046e-09,0.0,0.023955151438713074,0.15445350110530853,0.8547981499308507,0.13597089052200317,0.34854382276535034,0.15992605686187744,0.4053327441215515,2.9352734088897705,0.9986567497253418,,,,,,,
4636980000.0,75.01,0.5600000023841858,12041169408.0,1412.8573451418843,131.0,0.005809080321341753,540672.0,1381.1962404251099,1.1303458169464875e-14,0.0,2.072172164916992,-0.020721741020679474,0.013241671025753021,-0.020721720531582832,-2.0489096641540527e-08,0.0,0.028757277876138687,0.16019560396671295,0.8442260726613674,0.18503883481025696,0.36426621675491333,0.21379610896110535,0.40588515996932983,2.8990895748138428,0.9984323978424072,,,,,,,
4636980000.0,77.82,0.5799999833106995,12041169408.0,1453.9288651000168,132.0,0.004283874295651913,544768.0,1384.0134346485138,1.1724995974127239e-14,0.0,2.128781318664551,-0.021287817507982254,0.005839730612933636,-0.021287811920046806,-4.6566128730773926e-09,0.0,0.030450165271759033,0.10370571166276932,0.9208588256437182,0.21130923926830292,0.33613136410713196,0.24175940454006195,0.36863911151885986,2.8171942234039307,0.9987232685089111,,,,,,,
4636980000.0,79.89,0.6499999761581421,12041169408.0,1448.8490151209376,133.0,0.007212566211819649,548864.0,1386.8405063152313,1.054017984003508e-14,0.0,2.1377944946289062,-0.02137794718146324,0.020860852673649788,-0.021377945318818092,-1.862645149230957e-09,0.0,0.010989643633365631,0.2039879709482193,0.8016891076447785,0.28498178720474243,0.40607619285583496,0.29597145318984985,0.458069384098053,2.8270716667175293,0.9984867572784424,,,,,,,
4636980000.0,75.96,0.6200000047683716,12041169408.0,1427.2459322142743,134.0,0.005166283808648586,552960.0,1389.7103691101074,1.1395398513691646e-14,0.0,2.1718568801879883,-0.021718565374612808,0.006417152006179094,-0.021718569099903107,3.725290298461914e-09,0.0,0.020294884219765663,0.11146952956914902,0.9202520799643928,0.22449561953544617,0.3675945997238159,0.24479049444198608,0.3947266936302185,2.8698627948760986,0.9984211921691895,,,,,,,
4636980000.0,75.65,0.6499999761581421,12041169408.0,1393.5831887486524,135.0,0.006215199828147888,557056.0,1392.6495549678802,9.913944665207453e-15,0.0,2.202150344848633,-0.022021498531103134,0.007973074913024902,-0.022021502256393433,3.725290298461914e-09,0.0,0.016787298023700714,0.12517252564430237,0.8942025516690684,0.26174163818359375,0.3744758069515228,0.27852895855903625,0.3848322331905365,2.939185857772827,0.9985616207122803,,,,,,,
4636980000.0,73.47,0.5400000214576721,12041169408.0,1437.3711122182913,136.0,0.004500335082411766,561152.0,1395.4992017745972,1.1362438767648086e-14,0.0,2.1701416969299316,-0.021701419726014137,0.019029872491955757,-0.02170141600072384,-3.725290298461914e-09,0.0,0.00896758958697319,0.19490665197372437,0.7331895255506107,0.15788520872592926,0.32687434554100037,0.16685278713703156,0.377333402633667,2.849646806716919,0.9995169639587402,,,,,,,
4636980000.0,74.63,0.4300000071525574,12041169408.0,1401.0809106736428,137.0,0.0045116133987903595,565248.0,1398.422658920288,1.1180292802670522e-14,0.0,2.2510032653808594,-0.022510023787617683,0.02349330112338066,-0.02251003123819828,7.450580596923828e-09,0.0,-0.0026620158459991217,0.21677406132221222,0.7631683546649266,0.2451549619436264,0.4060922861099243,0.2424929440021515,0.4454381763935089,2.923457145690918,0.9983997344970703,,,,,,,
4636980000.0,76.81,0.4300000071525574,12041169408.0,1407.6486691924238,138.0,0.003826314816251397,569344.0,1401.33247590065,1.0619977119930013e-14,0.0,2.233880043029785,-0.02233879454433918,0.028188906610012054,-0.022338800132274628,5.587935447692871e-09,0.0,-0.008803864941000938,0.23730581998825073,0.7194788491491726,0.26332592964172363,0.40175196528434753,0.25452208518981934,0.4480490982532501,2.9098169803619385,0.9986715316772461,,,,,,,
4636980000.0,74.22,0.46000000834465027,12041169408.0,1393.2659476235065,139.0,0.0045332228764891624,573440.0,1404.2723309993744,1.1501216645726231e-14,0.0,2.1784093379974365,-0.021784089505672455,0.017580293118953705,-0.021784093230962753,3.725290298461914e-09,0.0,-0.0005860975943505764,0.18753355741500854,0.8256105831629613,0.24846728146076202,0.40452826023101807,0.2478812038898468,0.44907504320144653,2.9398550987243652,0.9983203411102295,,,,,,,
4636980000.0,76.64,0.5600000023841858,12041169408.0,1382.0979927810172,140.0,0.006292448379099369,577536.0,1407.2359414100647,1.1575809755193234e-14,0.0,2.224994659423828,-0.022249948233366013,0.010682795196771622,-0.022249946370720863,-2.7939677238464355e-09,0.0,0.005837651900947094,0.1460709571838379,0.8789949803169907,0.2783609926700592,0.4024715721607208,0.2841986417770386,0.4199157655239105,2.9636104106903076,0.9982235431671143,,,,,,,
4636980000.0,79.45,0.5099999904632568,12041169408.0,1396.8443098650318,141.0,0.003329725470393896,581632.0,1410.1682653427124,1.2885525979555723e-14,0.0,2.1680822372436523,-0.02168082818388939,0.01577082835137844,-0.02168082259595394,-5.587935447692871e-09,0.0,-0.0078117502853274345,0.17744949460029602,0.7310846979776051,0.17048069834709167,0.27958813309669495,0.16266894340515137,0.342189759016037,2.932323932647705,0.9987759590148926,,,,,,,
4636980000.0,75.68,0.44999998807907104,12041169408.0,1398.190768387366,142.0,0.0045676203444600105,585728.0,1413.0977654457092,1.3627987627273797e-14,0.0,2.079440116882324,-0.020794402807950974,0.008576367050409317,-0.020794400945305824,-1.862645149230957e-09,0.0,0.009539591148495674,0.13063651323318481,0.8047187922789003,0.16372129321098328,0.275161474943161,0.173260897397995,0.2956203520298004,2.929500102996826,0.9986801147460938,,,,,,,
4636980000.0,79.99,0.5699999928474426,12041169408.0,1429.9450743760215,143.0,0.006340336985886097,589824.0,1415.9622111320496,1.2326945020291191e-14,0.0,2.0786614418029785,-0.02078661322593689,0.013266241177916527,-0.02078661322593689,9.313225746154785e-10,0.0,-0.0022572726011276245,0.1628921926021576,0.8946045331667272,0.3786492943763733,0.501202404499054,0.3763920068740845,0.5017521977424622,2.864445686340332,0.9986073970794678,,,,,,,
4636980000.0,81.84,0.7200000286102295,12041169408.0,1402.4737919082033,144.0,0.0065307533368468285,593920.0,1418.8827648162842,1.435483676370808e-14,0.0,2.031313419342041,-0.02031312882900238,0.006815758533775806,-0.020313134416937828,5.587935447692871e-09,0.0,-0.009709205478429794,0.11636388301849365,0.9367832746262209,0.3097386956214905,0.4678109884262085,0.300029456615448,0.4628094434738159,2.920553684234619,0.9985768795013428,,,,,,,
4636980000.0,79.08,0.6700000166893005,12041169408.0,1422.9449705386858,145.0,0.004778293892741203,598016.0,1421.7613019943237,1.2902873214315491e-14,0.0,2.096125602722168,-0.020961258560419083,0.004899505525827408,-0.020961254835128784,-2.7939677238464355e-09,0.0,-0.0075028738938272,0.09871726483106613,0.9484994156172172,0.2681124806404114,0.43876829743385315,0.26060959696769714,0.43499770760536194,2.878537178039551,0.9984309673309326,,,,,,,
4636980000.0,79.39,0.5400000214576721,12041169408.0,1415.3176917294318,146.0,0.005144957453012466,602112.0,1424.6553518772125,1.4915152446448587e-14,0.0,2.019176721572876,-0.020191766321659088,0.007104900665581226,-0.020191766321659088,0.0,0.0,0.0034501617774367332,0.11916948109865189,0.8957397775720257,0.23638339340686798,0.3573756515979767,0.2398335486650467,0.3690674602985382,2.894049882888794,0.998546838760376,,,,,,,
4636980000.0,75.64,0.550000011920929,12041169408.0,1399.4463415766618,147.0,0.0056907664984464645,606208.0,1427.5822236537933,1.4823212102221817e-14,0.0,2.009169578552246,-0.020091688260436058,0.00815344974398613,-0.020091695711016655,7.450580596923828e-09,0.0,-0.015220772475004196,0.12680360674858093,0.9051481378173074,0.29055970907211304,0.41340476274490356,0.27533891797065735,0.41172635555267334,2.9268717765808105,0.9982814788818359,,,,,,,
4636980000.0,75.89,0.6499999761581421,12041169408.0,1426.0397829946035,148.0,0.006415476091206074,610304.0,1430.4545137882233,1.431146867680866e-14,0.0,1.9350812435150146,-0.019350824877619743,0.026036495342850685,-0.0193508118391037,-1.30385160446167e-08,0.0,-0.01813621073961258,0.2275010049343109,0.7416606106888105,0.3132675886154175,0.40550777316093445,0.2951313853263855,0.447597861289978,2.8722901344299316,0.9985823631286621,,,,,,,
4636980000.0,76.3,0.6499999761581421,12041169408.0,1420.6593881161848,149.0,0.006429013330489397,614400.0,1433.3376820087433,1.490821355254468e-14,0.0,1.951471209526062,-0.01951470598578453,0.0047810273244977,-0.01951471157371998,5.587935447692871e-09,0.0,-0.010531524196267128,0.09722884744405746,0.9476663785752716,0.2741384506225586,0.42285093665122986,0.2636069655418396,0.42501550912857056,2.8831682205200195,0.9990720748901367,,,,,,,
4636980000.0,77.96,0.6100000143051147,12041169408.0,1428.477878213601,150.0,0.005190878175199032,618496.0,1436.2050697803497,1.2856035680464117e-14,0.0,2.0114753246307373,-0.020114745944738388,0.017813989892601967,-0.020114753395318985,7.450580596923828e-09,0.0,-0.0003577526658773422,0.18877646327018738,0.7918391560688288,0.28297126293182373,0.37480980157852173,0.28261351585388184,0.4137597978115082,2.8673877716064453,0.998464822769165,,,,,,,
4636980000.0,79.52,0.7400000095367432,12041169408.0,1422.9106749012797,151.0,0.007892430759966373,622592.0,1439.0836763381958,1.438085761584773e-14,0.0,2.0024657249450684,-0.020024657249450684,0.008616013452410698,-0.020024657249450684,0.0,0.0,0.016011232510209084,0.13030661642551422,0.9010463881754258,0.28265097737312317,0.3989885449409485,0.2986622154712677,0.4142386317253113,2.8786065578460693,0.9989197254180908,,,,,,,
4636980000.0,79.42,0.699999988079071,12041169408.0,1431.0609210105,152.0,0.005572371184825897,626688.0,1441.945888519287,1.1424888812783252e-14,0.0,2.089132308959961,-0.020891325548291206,0.023283235728740692,-0.020891321823000908,-3.725290298461914e-09,0.0,-0.011376599781215191,0.21551886200904846,0.7872983263648852,0.2759957015514374,0.4069156050682068,0.2646191120147705,0.46730437874794006,2.8622121810913086,0.9982528686523438,,,,,,,
4636980000.0,78.87,0.6600000262260437,12041169408.0,1413.3420326102776,153.0,0.0063042305409908295,630784.0,1444.843983888626,1.1612238948188747e-14,0.0,2.072936534881592,-0.02072935737669468,0.007023789919912815,-0.020729364827275276,7.450580596923828e-09,0.0,0.006642449181526899,0.11835065484046936,0.9136178574126019,0.2554517686367035,0.3832346200942993,0.2620942294597626,0.4026787281036377,2.8980953693389893,0.9983358383178711,,,,,,,
4636980000.0,75.1,0.7400000095367432,12041169408.0,1450.8244202801802,154.0,0.006498245522379875,634880.0,1447.667206287384,1.1129985821867194e-14,0.0,2.0915980339050293,-0.020915979519486427,0.005177051294595003,-0.020915979519486427,0.0,0.0,0.008450343273580074,0.10141600668430328,0.9210037353051923,0.22537817060947418,0.3386504650115967,0.23382851481437683,0.3608304560184479,2.8232223987579346,0.9986550807952881,,,,,,,
4636980000.0,74.54,0.6600000262260437,12041169408.0,1388.479379146174,155.0,0.0068732923828065395,638976.0,1450.6171960830688,1.1549788903053582e-14,0.0,2.049973964691162,-0.020499728620052338,0.016665728762745857,-0.020499739795923233,1.1175870895385742e-08,0.0,-0.025139451026916504,0.180852010846138,0.8473841676603646,0.29833269119262695,0.4267762005329132,0.27319324016571045,0.46293872594833374,2.9499897956848145,0.9986162185668945,,,,,,,
4636980000.0,70.85,0.6000000238418579,12041169408.0,1448.163990057663,156.0,0.005620913580060005,643072.0,1453.4456050395966,1.1520298603961976e-14,0.0,2.1056389808654785,-0.02105638012290001,0.0040033552795648575,-0.021056389436125755,9.313225746154785e-09,0.0,0.007715147919952869,0.08915788680315018,0.9455289530119239,0.23574697971343994,0.37810710072517395,0.24346214532852173,0.38201192021369934,2.82840895652771,0.9985907077789307,,,,,,,
4636980000.0,77.0,0.6600000262260437,12041169408.0,1405.7748643412835,157.0,0.006359612103551626,647168.0,1456.3593006134033,1.2352965872430843e-14,0.0,2.034987449645996,-0.020349886268377304,0.006621721666306257,-0.02034987322986126,-1.30385160446167e-08,0.0,0.023310095071792603,0.11270840466022491,0.9022483760134158,0.19481730461120605,0.31454285979270935,0.21812741458415985,0.3604908883571625,2.9136955738067627,0.9983608722686768,,,,,,,
4636980000.0,79.66,0.75,12041169408.0,1411.774451618417,158.0,0.007101705297827721,651264.0,1459.2606139183044,1.3379922170209113e-14,0.0,1.9639192819595337,-0.019639186561107635,0.016113435849547386,-0.019639192149043083,5.587935447692871e-09,0.0,0.018449649214744568,0.17858965694904327,0.8410252186296412,0.31373846530914307,0.40412649512290955,0.33218812942504883,0.44791147112846375,2.901313304901123,0.9985227584838867,,,,,,,
4636980000.0,79.21,0.6899999976158142,12041169408.0,1375.8187352221487,159.0,0.006023221183568239,655360.0,1462.2377502918243,1.527250548249981e-14,0.0,1.969788670539856,-0.0196978822350502,0.005844459868967533,-0.0196978859603405,3.4924596548080444e-09,0.0,0.029470520094037056,0.10403389483690262,0.933808353485347,0.27391767501831055,0.36928021907806396,0.30338820815086365,0.4043647348880768,2.9771363735198975,0.9979958534240723,,,,,,,
,,,,,,,,,,,,,,,,,,,,,,,,,,0.0018834539223462343,0.01647190935909748,0.014994102530181408,0.0018834539223462343,0.01647190935909748,0.014994102530181408,
,,,,,,,,,,,,,,,,,,,,,,,,,,0.0013319802237674594,0.014256604015827179,0.013671018183231354,0.0013319802237674594,0.014256604015827179,0.013671018183231354,
,,,,,,,,,,,,,,,,,,,,,,,,,,0.001427580020390451,0.013809802941977978,0.013378607109189034,0.001427580020390451,0.013809802941977978,0.013378607109189034,
,,,,,,,,,,,,,,,,,,,,,,,,,,0.0011768180411309004,0.01322291512042284,0.012765555642545223,0.0011768180411309004,0.01322291512042284,0.012765555642545223,
,,,,,,,,,,,,,,,,,,,,,,,,,,0.0010180497774854302,0.012901821173727512,0.012558823451399803,0.0010180497774854302,0.012901821173727512,0.012558823451399803,
,,,,,,,,,,,,,,,,,,,,,,,,,,0.0009012777009047568,0.012790623120963573,0.012538040988147259,0.0009012777009047568,0.012790623120963573,0.012538040988147259,
,,,,,,,,,,,,,,,,,,,,,,,,,,,,,,,,-1.34
4636980000.0,82.85,0.7400000095367432,11990521856.0,16.207283198533542,160.0,0.007315982598811388,659456.0,1714.9636359214783,1.4471063236598525e-14,0.0,1.8248951435089111,-0.01824893429875374,0.005392907187342644,-0.01824895106256008,1.5832483768463135e-08,0.0,0.03213125094771385,0.0987713411450386,0.9276518827397531,0.2226358950138092,0.3201146721839905,0.25476714968681335,0.3672124147415161,252.72588562965393,0.9987595081329346,,,,,,,
4636980000.0,85.17,0.6299999952316284,12041169408.0,1423.2166834076772,161.0,0.0025667587760835886,663552.0,1717.841623544693,1.6101703304016723e-14,0.0,1.8522522449493408,-0.018522532656788826,0.01405765675008297,-0.01852252148091793,-1.1175870895385742e-08,0.0,-0.009015943855047226,0.1674540936946869,0.6870142015397147,0.1267355978488922,0.2349780648946762,0.11771965026855469,0.2993184030056,2.8779876232147217,0.9984686374664307,,,,,,,
4636980000.0,86.97,0.5699999928474426,12041169408.0,1449.7997677939804,162.0,0.007165940012782812,667648.0,1720.6668412685394,1.476076205708665e-14,0.0,1.88401460647583,-0.018840152770280838,0.0034773715306073427,-0.01884014531970024,-7.450580596923828e-09,0.0,0.013821883127093315,0.08225174993276596,0.9595337727442176,0.2698121666908264,0.3774552047252655,0.2836340665817261,0.408882737159729,2.8252177238464355,0.9986553192138672,,,,,,,
4636980000.0,85.89,0.6499999761581421,12041169408.0,1479.5747528540164,163.0,0.004972233437001705,671744.0,1723.4352042675018,1.3532577836095072e-14,0.0,1.943686604499817,-0.019436869770288467,0.001831419300287962,-0.01943686604499817,-3.725290298461914e-09,0.0,0.0022802194580435753,0.060485802590847015,0.9744196492160538,0.20200292766094208,0.35818180441856384,0.20428314805030823,0.37818145751953125,2.7683629989624023,0.998647928237915,,,,,,,
4636980000.0,83.44,0.550000011920929,12041169408.0,1366.4162227768525,164.0,0.004799967166036367,675840.0,1726.432826757431,1.2573275753879898e-14,0.0,1.9651381969451904,-0.01965138129889965,0.003289571963250637,-0.01965138129889965,0.0,0.0,-0.006420564837753773,0.08086728304624557,0.9644340795494274,0.2806043326854706,0.41458234190940857,0.2741837501525879,0.4288010001182556,2.997622489929199,0.9987108707427979,,,,,,,
4636980000.0,84.67,0.5699999928474426,12041169408.0,1452.7533762397754,165.0,0.0048108184710145,679936.0,1729.2523005008698,1.5222198501696482e-14,0.0,1.9118242263793945,-0.019118238240480423,0.013404794968664646,-0.01911824196577072,3.725290298461914e-09,0.0,0.006152681075036526,0.16364067792892456,0.8843917014077213,0.30189353227615356,0.4304181635379791,0.30804622173309326,0.4812788665294647,2.8194737434387207,0.9985146522521973,,,,,,,
4636980000.0,85.73,0.5899999737739563,12041169408.0,1437.0582661299936,166.0,0.006488373968750238,684032.0,1732.1025676727295,1.5100767858378106e-14,0.0,1.9117467403411865,-0.01911746710538864,0.014454545453190804,-0.01911746710538864,-9.313225746154785e-10,0.0,-0.01418779045343399,0.1694544404745102,0.8815229055382222,0.3216724395751953,0.43420255184173584,0.3074846863746643,0.49230673909187317,2.850267171859741,0.9990603923797607,,,,,,,
4636980000.0,79.54,0.7099999785423279,12041169408.0,1375.7878855268495,167.0,0.008356821723282337,688128.0,1735.0797708034515,1.3971462875517204e-14,0.0,1.894127368927002,-0.018941281363368034,0.0029233815148472786,-0.018941273912787437,-7.450580596923828e-09,0.0,-0.005594193469733,0.07626853138208389,0.9731889836210774,0.31989437341690063,0.4488036036491394,0.31430017948150635,0.46578848361968994,2.977203130722046,0.9989078044891357,,,,,,,
4636980000.0,77.39,0.8399999737739563,12041169408.0,1437.1107984056146,168.0,0.007256218232214451,692224.0,1737.9299337863922,1.5584755708175635e-14,0.0,1.8269113302230835,-0.018269117921590805,0.0060000112280249596,-0.018269112333655357,-6.51925802230835e-09,0.0,0.031651075929403305,0.10488526523113251,0.943794412636717,0.2948567271232605,0.39900878071784973,0.3265078067779541,0.4424097537994385,2.850162982940674,0.9985055923461914,,,,,,,
4636980000.0,75.6,0.6499999761581421,12041169408.0,1457.3009837195846,169.0,0.0063384948298335075,696320.0,1740.7406091690063,1.6578752259910345e-14,0.0,1.8219759464263916,-0.01821976527571678,0.011780921369791031,-0.018219759687781334,-6.51925802230835e-09,0.0,0.0035048474092036486,0.15347737073898315,0.8911568519005101,0.22191432118415833,0.43330061435699463,0.22541917860507965,0.46520447731018066,2.8106753826141357,0.9991931915283203,,,,,,,
4636980000.0,73.89,0.6700000166893005,12041169408.0,1401.2735850087706,170.0,0.008217021822929382,700416.0,1743.663664340973,1.5572612643843797e-14,0.0,1.8683407306671143,-0.01868339627981186,0.004456242546439171,-0.018683407455682755,1.1175870895385742e-08,0.0,-0.012271508574485779,0.09361641854047775,0.970606203611976,0.42002570629119873,0.539983332157135,0.40775418281555176,0.5460397005081177,2.9230551719665527,0.9985074996948242,,,,,,,
4636980000.0,73.62,0.8199999928474426,12041169408.0,1354.3150108673176,171.0,0.007298248820006847,704512.0,1746.688071489334,1.5961190702462602e-14,0.0,1.8602252006530762,-0.01860225573182106,0.0027090790681540966,-0.01860225200653076,-3.725290298461914e-09,0.0,-0.00786737259477377,0.0731954276561737,0.9820829447971436,0.39555585384368896,0.5404200553894043,0.3876884877681732,0.5468278527259827,3.024407148361206,0.998725414276123,,,,,,,
4636980000.0,77.36,0.7300000190734863,12041169408.0,1432.1383959727762,172.0,0.006938159000128508,708608.0,1749.548130273819,1.632548263241773e-14,0.0,1.8632402420043945,-0.01863240636885166,0.016579316928982735,-0.018632402643561363,-3.725290298461914e-09,0.0,-0.016625605523586273,0.18135671317577362,0.8969633819156589,0.47743165493011475,0.5354616641998291,0.4608060419559479,0.5649861693382263,2.8600587844848633,0.9983038902282715,,,,,,,
4636980000.0,77.75,0.6800000071525574,12041169408.0,1434.5751257141617,173.0,0.0073274909518659115,712704.0,1752.403331041336,1.4937703851636286e-14,0.0,1.8755475282669067,-0.0187554731965065,0.005725519731640816,-0.01875547505915165,1.862645149230957e-09,0.0,0.0006090225651860237,0.10702085494995117,0.9486025002924784,0.351378858089447,0.4539572298526764,0.35198789834976196,0.47206026315689087,2.85520076751709,0.9989492893218994,,,,,,,
4636980000.0,77.28,0.7200000286102295,12041169408.0,1420.4456085903385,174.0,0.006588338408619165,716800.0,1755.28693318367,1.4072076837123859e-14,0.0,1.9408774375915527,-0.01940876804292202,0.007071417290717363,-0.019408773630857468,5.587935447692871e-09,0.0,-0.016968298703432083,0.11772125959396362,0.940182151098073,0.31989455223083496,0.48418906331062317,0.30292627215385437,0.4813261926174164,2.8836021423339844,0.9984211921691895,,,,,,,
4636980000.0,77.69,0.6299999952316284,12041169408.0,1420.6040576829175,175.0,0.006225024349987507,720896.0,1758.1702136993408,1.3090223349720986e-14,0.0,1.9745460748672485,-0.019745459780097008,0.006541208829730749,-0.019745459780097008,0.0,0.0,-0.013898136094212532,0.11354474723339081,0.9479244626873006,0.3847435414791107,0.49999409914016724,0.37084537744522095,0.49756529927253723,2.8832805156707764,0.9984421730041504,,,,,,,
4636980000.0,78.29,0.7099999785423279,12041169408.0,1413.637773873833,176.0,0.008126619271934032,724992.0,1761.0677027702332,1.4259426972529354e-14,0.0,1.9497689008712769,-0.019497711211442947,0.0054556941613554955,-0.019497688859701157,-2.2351741790771484e-08,0.0,-0.022256411612033844,0.10207145661115646,0.9671344464477826,0.43110182881355286,0.5745463967323303,0.4088454246520996,0.5630329847335815,2.897489070892334,0.9987008571624756,,,,,,,
4636980000.0,79.42,0.7799999713897705,12041169408.0,1422.1252742971913,177.0,0.007763334549963474,729088.0,1763.9478991031647,1.5798126695720782e-14,0.0,1.8308759927749634,-0.018308749422430992,0.007788026239722967,-0.01830875873565674,9.313225746154785e-09,0.0,-0.007236401550471783,0.12460929155349731,0.9498245267864744,0.44101640582084656,0.5503038763999939,0.4337800443172455,0.5562945008277893,2.8801963329315186,1.0013515949249268,,,,,,,
4636980000.0,78.02,0.7599999904632568,12041169408.0,1414.4908015819035,178.0,0.00701888557523489,733184.0,1766.8436408042908,1.460463694424874e-14,0.0,1.883460521697998,-0.01883460395038128,0.004429234191775322,-0.01883460395038128,0.0,0.0,-0.0078000351786613464,0.09380712360143661,0.9602384863987025,0.3177434504032135,0.4798327684402466,0.30994343757629395,0.4704401195049286,2.8957417011260986,0.9986357688903809,,,,,,,
4636980000.0,77.33,0.6800000071525574,12041169408.0,1380.5625267797418,179.0,0.006463559344410896,737280.0,1769.8105473518372,1.4828416272649747e-14,0.0,1.8762047290802002,-0.018762046471238136,0.004380499944090843,-0.018762046471238136,0.0,0.0,0.0021942718885838985,0.09358591586351395,0.9704304888450135,0.399860143661499,0.5431044697761536,0.40205442905426025,0.5442373752593994,2.9669065475463867,0.9985959529876709,,,,,,,
4636980000.0,79.32,0.6499999761581421,12041169408.0,1408.5802857111232,180.0,0.006095110438764095,741376.0,1772.7184398174286,1.5780779460961014e-14,0.0,1.8447191715240479,-0.018447190523147583,0.02404082380235195,-0.018447190523147583,0.0,0.0,-0.02190575748682022,0.21820497512817383,0.8355261275543191,0.4082918167114258,0.5319218039512634,0.38638603687286377,0.5380420088768005,2.9078924655914307,0.9983267784118652,,,,,,,
4636980000.0,80.11,0.7099999785423279,12041169408.0,1453.2677951374203,181.0,0.008967246860265732,745472.0,1775.5369155406952,1.6139867220488213e-14,0.0,1.7727985382080078,-0.017727987840771675,0.004536516964435577,-0.017727984115481377,-3.725290298461914e-09,0.0,0.007644027471542358,0.09495685249567032,0.9676937077270833,0.39960581064224243,0.5264315605163574,0.4072498679161072,0.5283026099205017,2.8184757232666016,0.9993133544921875,,,,,,,
4636980000.0,80.55,0.7300000190734863,12041169408.0,1444.3381374336034,182.0,0.005353380925953388,749568.0,1778.3728165626526,1.3485740302243698e-14,0.0,1.9768383502960205,-0.019768375903367996,0.002808865625411272,-0.019768383353948593,7.450580596923828e-09,0.0,0.012486380524933338,0.07391316443681717,0.966791462932981,0.23881633579730988,0.3976950943470001,0.25130271911621094,0.40559902787208557,2.8359010219573975,0.9987034797668457,,,,,,,
4636980000.0,79.48,0.6200000047683716,12041169408.0,1403.2059975996663,183.0,0.006704876199364662,753664.0,1781.2918462753296,1.6077417175353048e-14,0.0,1.9298360347747803,-0.01929834485054016,0.003142638597637415,-0.019298359751701355,1.5832483768463135e-08,0.0,0.01909850537776947,0.07695434242486954,0.9685065196441391,0.2354678511619568,0.4224976897239685,0.25456637144088745,0.4336334764957428,2.919029712677002,0.9985718727111816,,,,,,,
4636980000.0,80.75,0.7799999713897705,12041169408.0,1409.1858275838988,184.0,0.008060555905103683,757760.0,1784.198489189148,1.5360976379774627e-14,0.0,1.8649605512619019,-0.018649596720933914,0.006204776465892792,-0.01864960417151451,8.381903171539307e-09,0.0,0.030024517327547073,0.10728882998228073,0.9482890043149278,0.3118263781070709,0.47012412548065186,0.3418509066104889,0.47180551290512085,2.9066429138183594,0.9984426498413086,,,,,,,
4636980000.0,80.45,0.8100000023841858,12041169408.0,1374.3023489789807,185.0,0.007883147336542606,761856.0,1787.1789104938507,1.7397541740571398e-14,0.0,1.9253931045532227,-0.019253937527537346,0.002240813570097089,-0.01925393007695675,-7.450580596923828e-09,0.0,0.02228793129324913,0.06313357502222061,0.9776407228182846,0.24871689081192017,0.4070211350917816,0.2710048258304596,0.4222128987312317,2.980421304702759,0.9984102249145508,,,,,,,
4636980000.0,78.05,0.75,12041169408.0,1405.6575433779158,186.0,0.007126361131668091,765952.0,1790.0928492546082,1.5334955527634975e-14,0.0,1.9822250604629517,-0.0198222566395998,0.00250439764931798,-0.019822251051664352,-5.587935447692871e-09,0.0,0.016508497297763824,0.06882893294095993,0.9681961875146053,0.1812291145324707,0.3630124032497406,0.19773760437965393,0.38595035672187805,2.9139387607574463,0.9985086917877197,,,,,,,
4636980000.0,76.46,0.7400000095367432,12041169408.0,1424.143408851641,187.0,0.007718097418546677,770048.0,1792.968964099884,1.9843501841698696e-14,0.0,1.7942839860916138,-0.01794283837080002,0.00305395876057446,-0.017942840233445168,1.862645149230957e-09,0.0,0.016132483258843422,0.07647933065891266,0.9707189944480724,0.28466010093688965,0.4346558153629303,0.3007925748825073,0.44694191217422485,2.876114845275879,0.998915433883667,,,,,,,
4636980000.0,76.71,0.7300000190734863,12041169408.0,1390.6186101478697,188.0,0.007152587175369263,774144.0,1795.9144158363342,1.8476539742628972e-14,0.0,1.8173749446868896,-0.018173763528466225,0.0019508759723976254,-0.01817374862730503,-1.4901161193847656e-08,0.0,0.020000794902443886,0.05918256193399429,0.9841535672419093,0.3221340775489807,0.451505571603775,0.34213483333587646,0.47014084458351135,2.9454517364501953,0.9992339611053467,,,,,,,
4636980000.0,79.65,0.7900000214576721,12041169408.0,1421.6236044936888,189.0,0.008906586095690727,778240.0,1798.7956285476685,1.8011633851067188e-14,0.0,1.8468623161315918,-0.01846862956881523,0.0021520969457924366,-0.018468622118234634,-7.450580596923828e-09,0.0,0.019016966223716736,0.06279738992452621,0.9812138163154253,0.2892593741416931,0.4361359477043152,0.30827635526657104,0.45816537737846375,2.8812127113342285,0.9985599517822266,,,,,,,
4636980000.0,79.2,0.7200000286102295,12041169408.0,1422.4156348348101,190.0,0.004655524156987667,782336.0,1801.675236940384,1.6849369122162727e-14,0.0,1.979081153869629,-0.01979081705212593,0.012162700295448303,-0.019790811464190483,-5.587935447692871e-09,0.0,-0.00652684923261404,0.155848428606987,0.8952128040895206,0.24869021773338318,0.42848530411720276,0.24216337502002716,0.481446772813797,2.879608392715454,0.9983651638031006,,,,,,,
4636980000.0,79.16,0.5699999928474426,12041169408.0,1361.6245766389254,191.0,0.0068017239682376385,786432.0,1804.6834082603455,1.8344700758454735e-14,0.0,1.8836798667907715,-0.018836794421076775,0.012810471467673779,-0.018836798146367073,3.725290298461914e-09,0.0,-0.002095256932079792,0.1600712686777115,0.8969099199540287,0.34757131338119507,0.46737733483314514,0.34547603130340576,0.49854564666748047,3.008171319961548,0.998586893081665,,,,,,,
,,,,,,,,,,,,,,,,,,,,,,,,,,0.0018780818209052086,0.01086352951824665,0.009507579728960991,0.0018780818209052086,0.01086352951824665,0.009507579728960991,
,,,,,,,,,,,,,,,,,,,,,,,,,,0.0027273688465356827,0.009607521817088127,0.009148280136287212,0.0027273688465356827,0.009607521817088127,0.009148280136287212,
,,,,,,,,,,,,,,,,,,,,,,,,,,0.0020476465579122305,0.009320023469626904,0.008446943946182728,0.0020476465579122305,0.009320023469626904,0.008446943946182728,
,,,,,,,,,,,,,,,,,,,,,,,,,,0.0014937970554456115,0.008535417728126049,0.008327886462211609,0.0014937970554456115,0.008535417728126049,0.008327886462211609,
,,,,,,,,,,,,,,,,,,,,,,,,,,0.001521156053058803,0.008610175922513008,0.008817561902105808,0.001521156053058803,0.008610175922513008,0.008817561902105808,
,,,,,,,,,,,,,,,,,,,,,,,,,,0.0009618220501579344,0.008329583331942558,0.007927456870675087,0.0009618220501579344,0.008329583331942558,0.007927456870675087,
,,,,,,,,,,,,,,,,,,,,,,,,,,,,,,,,-1.89
4636980000.0,81.32,0.7099999785423279,11990521856.0,16.223457677205626,192.0,0.008760152384638786,790528.0,2057.1573309898376,1.5574347367319774e-14,0.0,1.6593947410583496,-0.016593949869275093,0.0018346435390412807,-0.016593946143984795,-3.725290298461914e-09,0.0,0.02317965403199196,0.05597102642059326,0.9879481105180528,0.3779500126838684,0.48647066950798035,0.40112966299057007,0.509842038154602,252.4739227294922,0.9993958473205566,,,,,,,
4636980000.0,79.99,0.7300000190734863,12041169408.0,1408.0346926654029,193.0,0.00624125637114048,794624.0,2060.066350221634,1.4301060335952798e-14,0.0,1.9132986068725586,-0.019132981076836586,0.0009045721380971372,-0.019132984802126884,3.725290298461914e-09,0.0,0.003837689757347107,0.042365726083517075,0.991730607171069,0.2897123098373413,0.4551381468772888,0.2935500144958496,0.4658840000629425,2.9090192317962646,0.9988126754760742,,,,,,,
4636980000.0,77.17,0.6499999761581421,12041169408.0,1434.5948916175348,194.0,0.006837233901023865,798720.0,2062.9215116500854,1.3874318360862503e-14,0.0,1.9070923328399658,-0.019070927053689957,0.013568425551056862,-0.019070923328399658,-4.6566128730773926e-09,0.0,-0.011672597378492355,0.16433864831924438,0.907310727102461,0.3336228132247925,0.4973107576370239,0.32195019721984863,0.5397902131080627,2.855161428451538,0.9986114501953125,,,,,,,
4636980000.0,78.63,0.6299999952316284,12041169408.0,1463.3275388074353,195.0,0.005869526416063309,802816.0,2065.7206115722656,1.3286247102506366e-14,0.0,1.8541884422302246,-0.018541891127824783,0.0061565968208014965,-0.018541883677244186,-7.450580596923828e-09,0.0,0.004311343654990196,0.1108945906162262,0.9559212471528058,0.3055998980998993,0.49584081768989563,0.30991125106811523,0.5281966924667358,2.799099922180176,0.9987781047821045,,,,,,,
4636980000.0,80.73,0.7799999713897705,12041169408.0,1380.2945452079632,196.0,0.00921022891998291,806912.0,2068.688094139099,1.4497084088738177e-14,0.0,1.8483024835586548,-0.01848302036523819,0.0012927697971463203,-0.018483024090528488,3.725290298461914e-09,0.0,-0.0019976021721959114,0.0508151538670063,0.9917639205192255,0.45361435413360596,0.5545142292976379,0.4516167640686035,0.5599290132522583,2.967482566833496,0.9982352256774902,,,,,,,
4636980000.0,81.28,0.8700000047683716,12041169408.0,1440.8310978335958,197.0,0.0076559074223041534,811008.0,2071.5308978557587,1.5635062688978962e-14,0.0,1.7413583993911743,-0.017413577064871788,0.0013678178656846285,-0.017413584515452385,7.450580596923828e-09,0.0,-0.0014606011100113392,0.052289288491010666,0.9919631246453396,0.45764052867889404,0.5752720832824707,0.4561799168586731,0.5832692980766296,2.842803716659546,0.9983997344970703,,,,,,,
4636980000.0,81.68,0.8999999761581421,12041169408.0,1408.9887758180912,198.0,0.01041976548731327,815104.0,2074.4379472732544,1.6295992333326126e-14,0.0,1.7134652137756348,-0.0171346478164196,0.0015646086540073156,-0.0171346515417099,4.6566128730773926e-09,0.0,-0.0043834540992975235,0.05577420815825462,0.9918910437809854,0.5283363461494446,0.6113214492797852,0.5239529013633728,0.6193711161613464,2.9070494174957275,0.9982092380523682,,,,,,,
4636980000.0,82.98,0.9100000262260437,12041169408.0,1408.689316453313,199.0,0.00807412713766098,819200.0,2077.345614671707,1.6283849268994288e-14,0.0,1.6385228633880615,-0.01638522744178772,0.0036416309885680676,-0.01638522744178772,0.0,0.0,-0.006769590079784393,0.0850834995508194,0.980172352510296,0.47498607635498047,0.5938910245895386,0.46821650862693787,0.6042404174804688,2.907667398452759,0.9984543323516846,,,,,,,
4636980000.0,83.1,0.8899999856948853,12041169408.0,1461.547207015616,200.0,0.008284424431622028,823296.0,2080.148124217987,1.492382606382847e-14,0.0,1.724928855895996,-0.017249299213290215,0.0012670725118368864,-0.01724928803741932,-1.1175870895385742e-08,0.0,-0.012070971541106701,0.04887760430574417,0.9928868580968284,0.4734857976436615,0.5741526484489441,0.4614148437976837,0.5795342922210693,2.8025095462799072,0.9990520477294922,,,,,,,
4636980000.0,80.4,0.7200000286102295,12041169408.0,1424.8461879268662,201.0,0.006916064769029617,827392.0,2083.0228204727173,1.9968401931969026e-14,0.0,1.5878067016601562,-0.015878064557909966,0.006604192778468132,-0.015878066420555115,1.862645149230957e-09,0.0,-0.011593802832067013,0.1143554151058197,0.9647491014228666,0.3860255479812622,0.6154982447624207,0.3744317293167114,0.609076201915741,2.8746962547302246,0.9989669322967529,,,,,,,
4636980000.0,82.46,0.7400000095367432,12041169408.0,1447.8525296190492,202.0,0.007323164492845535,831488.0,2085.851837873459,1.8355109099310596e-14,0.0,1.618870496749878,-0.01618870534002781,0.0013497264590114355,-0.01618870534002781,0.0,0.0,-0.009475409984588623,0.051091160625219345,0.9927904230884239,0.46739107370376587,0.5951712727546692,0.45791566371917725,0.601715087890625,2.829017400741577,0.9986305236816406,,,,,,,
4636980000.0,77.81,0.8100000023841858,12041169408.0,1409.4708122051256,203.0,0.009315814822912216,835584.0,2088.7578930854797,1.9532986339498848e-14,0.0,1.6634275913238525,-0.01663428544998169,0.004180940333753824,-0.016634276136755943,-9.313225746154785e-09,0.0,-0.028424713760614395,0.08692387491464615,0.975148068476718,0.3949984908103943,0.5655409097671509,0.3665738105773926,0.5513902306556702,2.906055212020874,0.998784065246582,,,,,,,
4636980000.0,73.69,0.7799999713897705,12041169408.0,1405.5664606053456,204.0,0.007941051386296749,839680.0,2091.672020673752,2.0367388331443692e-14,0.0,1.7103759050369263,-0.017103740945458412,0.0007649632170796394,-0.017103759571909904,1.862645149230957e-08,0.0,-0.013239303603768349,0.036810025572776794,0.994251537425969,0.30733469128608704,0.4927307367324829,0.29409536719322205,0.48550108075141907,2.9141275882720947,0.9985940456390381,,,,,,,
4636980000.0,75.1,0.7599999904632568,12041169408.0,1390.0474742855442,205.0,0.00874786451458931,843776.0,2094.6186826229095,1.9850440735602604e-14,0.0,1.6688196659088135,-0.016688194125890732,0.001526647713035345,-0.01668819598853588,9.313225746154785e-10,0.0,-0.014246759936213493,0.05339495837688446,0.9907709785106906,0.3770052194595337,0.5591467618942261,0.36275845766067505,0.555804967880249,2.946661949157715,0.9984769821166992,,,,,,,
4636980000.0,79.51,0.9100000262260437,12041169408.0,1397.3946755766574,206.0,0.010551578365266323,847872.0,2097.54985165596,1.9997892231060632e-14,0.0,1.634559988975525,-0.016345610842108727,0.0007850714027881622,-0.01634559966623783,-1.1175870895385742e-08,0.0,-0.009248152375221252,0.03853539749979973,0.9959848436637774,0.4605010747909546,0.6099382042884827,0.45125293731689453,0.608147144317627,2.931169033050537,0.9983623027801514,,,,,,,
4636980000.0,82.26,0.9300000071525574,12041169408.0,1401.2763280864733,207.0,0.0071790278889238834,851968.0,2100.4729011058807,1.8898077547291336e-14,0.0,1.5066289901733398,-0.01506629679352045,0.0009236496407538652,-0.015066289342939854,-7.450580596923828e-09,0.0,-0.0038168251048773527,0.04281563311815262,0.9956949344862951,0.5405790209770203,0.6537972092628479,0.5367622375488281,0.6525480151176453,2.9230494499206543,0.9981658458709717,,,,,,,
4636980000.0,82.39,0.7599999904632568,12041169408.0,1414.6149598729637,208.0,0.007790659554302692,856064.0,2103.3683886528015,1.8617052344183094e-14,0.0,1.700728178024292,-0.01700727827847004,0.000621648330707103,-0.017007282003760338,3.725290298461914e-09,0.0,-0.0006182678043842316,0.03525929152965546,0.9958678403372933,0.37406671047210693,0.5494385361671448,0.3734484314918518,0.5485106110572815,2.8954875469207764,0.9986007213592529,,,,,,,
4636980000.0,81.49,0.8899999856948853,12041169408.0,1432.60462713137,209.0,0.010800860822200775,860160.0,2106.2275166511536,1.9291859776338072e-14,0.0,1.6478240489959717,-0.01647823303937912,0.0018073705723509192,-0.016478240489959717,7.450580596923828e-09,0.0,-0.0010249612387269735,0.0601213239133358,0.9891422908298354,0.4534663259983063,0.579752504825592,0.45244136452674866,0.5769782066345215,2.859127998352051,0.9991393089294434,,,,,,,
4636980000.0,82.12,0.8999999761581421,12041169408.0,1396.8187563453903,210.0,0.007212866097688675,864256.0,2109.1598942279816,1.825969930813187e-14,0.0,1.6819376945495605,-0.016819365322589874,0.0008009510929696262,-0.01681937649846077,1.1175870895385742e-08,0.0,0.002382619772106409,0.03995766490697861,0.9952197706683766,0.4231703281402588,0.5798319578170776,0.42555293440818787,0.5779306888580322,2.932377576828003,1.001798152923584,,,,,,,
4636980000.0,81.21,0.7799999713897705,12041169408.0,1369.8366360893624,211.0,0.007825319655239582,868352.0,2112.1500318050385,2.0088097851811426e-14,0.0,1.8038803339004517,-0.018038803711533546,0.0137978820130229,-0.018038803711533546,0.0,0.0,-0.010892280377447605,0.16578249633312225,0.9066604651628272,0.3794246315956116,0.5236051678657532,0.36853235960006714,0.542632520198822,2.9901375770568848,0.9982399940490723,,,,,,,
4636980000.0,80.69,0.7799999713897705,12041169408.0,1414.4672768572373,212.0,0.008038107305765152,872448.0,2115.0458216667175,1.7529380724745636e-14,0.0,1.6001667976379395,-0.016001656651496887,0.018293999135494232,-0.016001667827367783,1.1175870895385742e-08,0.0,-0.01865319348871708,0.1903914511203766,0.9054460583722157,0.4473811686038971,0.6108989119529724,0.42872798442840576,0.6191667914390564,2.895789861679077,0.998450517654419,,,,,,,
4636980000.0,80.02,0.7599999904632568,12041169408.0,1448.0088533182834,213.0,0.007246076129376888,876544.0,2117.8745336532593,1.572353358625378e-14,0.0,1.7687129974365234,-0.01768714003264904,0.000822810921818018,-0.017687128856778145,-1.1175870895385742e-08,0.0,0.008035436272621155,0.039767321199178696,0.9946357890329882,0.38662832975387573,0.5388912558555603,0.3946637511253357,0.5429669618606567,2.828711986541748,0.998358964920044,,,,,,,
4636980000.0,78.19,0.7799999713897705,12041169408.0,1404.9602330256328,214.0,0.00927403662353754,880640.0,2120.7899186611176,1.5671491881974475e-14,0.0,1.746519684791565,-0.017465196549892426,0.0013302122242748737,-0.017465196549892426,0.0,0.0,0.018426677212119102,0.04818141460418701,0.9914244748567884,0.3451206684112549,0.5100890398025513,0.36354732513427734,0.5202944278717041,2.9153850078582764,0.9984371662139893,,,,,,,
4636980000.0,77.49,0.8299999833106995,12041169408.0,1402.6299744144628,215.0,0.010093891993165016,884736.0,2123.7101471424103,1.630466595070601e-14,0.0,1.7833725214004517,-0.01783374510705471,0.0011799042113125324,-0.01783372461795807,-2.0954757928848267e-08,0.0,0.018567975610494614,0.044894661754369736,0.9930590263717363,0.3578706979751587,0.5257592797279358,0.3764386773109436,0.5388705730438232,2.9202284812927246,0.9983706474304199,,,,,,,
4636980000.0,78.28,0.8299999833106995,12041169408.0,1387.1316147626808,216.0,0.007481756620109081,888832.0,2126.663003206253,1.8011633851067188e-14,0.0,1.6070626974105835,-0.016070615500211716,0.0009979063179343939,-0.01607062667608261,1.1175870895385742e-08,0.0,0.016952386125922203,0.041338201612234116,0.9939596745413186,0.3243393898010254,0.521723210811615,0.34129175543785095,0.5318894386291504,2.9528560638427734,0.9991977214813232,,,,,,,
4636980000.0,75.19,0.6800000071525574,12041169408.0,1422.2737366296558,217.0,0.006481804884970188,892928.0,2129.5428988933563,1.553791817432426e-14,0.0,1.7679075002670288,-0.017679084092378616,0.000872295000590384,-0.01767907477915287,-9.313225746154785e-09,0.0,0.016217200085520744,0.03849615529179573,0.9940592808221399,0.2949458062648773,0.48548585176467896,0.3111630082130432,0.4994567334651947,2.8798956871032715,0.9984545707702637,,,,,,,
4636980000.0,77.12,0.6499999761581421,12041169408.0,1412.4481187741435,218.0,0.007100622169673443,897024.0,2132.4428284168243,1.6665488433709186e-14,0.0,1.8376739025115967,-0.018376760184764862,0.000652680522762239,-0.01837673783302307,-2.2351741790771484e-08,0.0,0.013541028834879398,0.03350038081407547,0.9947527176192258,0.2585940957069397,0.4512891173362732,0.2721351087093353,0.46246886253356934,2.8999295234680176,0.9987525939941406,,,,,,,
4636980000.0,80.71,0.6700000166893005,12041169408.0,1447.9408770391321,219.0,0.008331358432769775,901120.0,2135.2716732025146,1.432187701766452e-14,0.0,1.781010627746582,-0.01781010814011097,0.0008310838020406663,-0.01781010627746582,-1.862645149230957e-09,0.0,0.01481915544718504,0.03798568621277809,0.994869382062298,0.38214436173439026,0.5199441909790039,0.396963506937027,0.5303164720535278,2.8288447856903076,0.998603105545044,,,,,,,
4636980000.0,84.29,0.7300000190734863,12041169408.0,1400.1238103543124,220.0,0.007122107781469822,905216.0,2138.1971287727356,1.3758091887972057e-14,0.0,1.7543721199035645,-0.017543712630867958,0.011806097812950611,-0.017543720081448555,7.450580596923828e-09,0.0,-0.0038962592370808125,0.15363195538520813,0.934372945737223,0.3401695787906647,0.5513983964920044,0.33627334237098694,0.5997083783149719,2.9254555702209473,0.9984557628631592,,,,,,,
4636980000.0,79.76,0.8399999737739563,12041169408.0,1421.806791206745,221.0,0.010188783518970013,909312.0,2141.077970266342,1.629425760985015e-14,0.0,1.7953165769577026,-0.01795315556228161,0.0017367562977597117,-0.017953164875507355,9.313225746154785e-09,0.0,0.016523979604244232,0.05657961219549179,0.9891447498001174,0.36886557936668396,0.5270523428916931,0.3853895664215088,0.543050229549408,2.8808414936065674,0.9990155696868896,,,,,,,
4636980000.0,77.35,0.7900000214576721,12041169408.0,1351.9467854584188,222.0,0.007346964441239834,913408.0,2144.1076753139496,1.4181364416110398e-14,0.0,1.8638845682144165,-0.018638841807842255,0.011076577007770538,-0.018638845533132553,3.725290298461914e-09,0.0,-0.006637939251959324,0.14870943129062653,0.9310992581185817,0.3064873218536377,0.515742838382721,0.29984936118125916,0.566534698009491,3.029705047607422,0.998767614364624,,,,,,,
4636980000.0,83.4,0.8600000143051147,12041169408.0,1432.7781081847447,223.0,0.010012844577431679,917504.0,2146.966457128525,1.456647302777725e-14,0.0,1.8308486938476562,-0.018308501690626144,0.0006265732808969915,-0.01830848678946495,-1.4901161193847656e-08,0.0,0.008953146636486053,0.034253090620040894,0.9966604174752774,0.4297485649585724,0.5802829265594482,0.43870168924331665,0.5927255749702454,2.8587818145751953,0.9983949661254883,,,,,,,
,,,,,,,,,,,,,,,,,,,,,,,,,,0.0014232035027816892,0.006375283934175968,0.005120316054672003,0.0014232035027816892,0.006375283934175968,0.005120316054672003,
,,,,,,,,,,,,,,,,,,,,,,,,,,0.0006121781188994646,0.004596162587404251,0.004297440405935049,0.0006121781188994646,0.004596162587404251,0.004297440405935049,
,,,,,,,,,,,,,,,,,,,,,,,,,,0.0011708374368026853,0.004404119215905666,0.004164523910731077,0.0011708374368026853,0.004404119215905666,0.004164523910731077,
,,,,,,,,,,,,,,,,,,,,,,,,,,0.0005913384957239032,0.004076023586094379,0.003681027563288808,0.0005913384957239032,0.004076023586094379,0.003681027563288808,
,,,,,,,,,,,,,,,,,,,,,,,,,,0.0008309879340231419,0.0039034283254295588,0.003679908812046051,0.0008309879340231419,0.0039034283254295588,0.003679908812046051,
,,,,,,,,,,,,,,,,,,,,,,,,,,0.0006236319895833731,0.003732249839231372,0.0035289020743221045,0.0006236319895833731,0.003732249839231372,0.0035289020743221045,
,,,,,,,,,,,,,,,,,,,,,,,,,,,,,,,,-1.29
4636980000.0,81.62,0.8500000238418579,11990521856.0,16.186292004555494,224.0,0.0061398521065711975,921600.0,2400.020090341568,1.2410211747138078e-14,0.0,1.9312723875045776,-0.019312720745801926,0.00642660865560174,-0.019312722608447075,1.862645149230957e-09,0.0,-0.0015909902285784483,0.11337471008300781,0.9568488418330654,0.31799933314323425,0.5224569439888,0.31640833616256714,0.5457829236984253,253.0536332130432,0.9985032081604004,,,,,,,
4636980000.0,79.08,0.7599999904632568,12041169408.0,1459.9580249523854,225.0,0.010860367678105831,925696.0,2402.8256504535675,1.362104873336989e-14,0.0,1.8138670921325684,-0.018138671293854713,0.0005696153384633362,-0.018138671293854713,0.0,0.0,0.0012370427139103413,0.03373393416404724,0.9968411052593675,0.4420814514160156,0.5911222100257874,0.4433184862136841,0.6002047061920166,2.8055601119995117,0.998502254486084,,,,,,,
4636980000.0,82.47,0.8399999737739563,12041169408.0,1419.8941901338753,226.0,0.0059512886218726635,929792.0,2405.7103724479675,1.3560333411710701e-14,0.0,1.8446441888809204,-0.018446441739797592,0.012687460519373417,-0.018446441739797592,0.0,0.0,-0.03275004029273987,0.1559111624956131,0.9558180309205111,0.38026073575019836,0.6625756621360779,0.3475106954574585,0.7417451739311218,2.8847219944000244,0.9986433982849121,,,,,,,
4636980000.0,83.88,0.7400000095367432,12041169408.0,1370.535369973974,227.0,0.008016012609004974,933888.0,2408.6989855766296,1.2885525979555723e-14,0.0,1.7148000001907349,-0.017147991806268692,0.0019084808882325888,-0.01714799925684929,7.450580596923828e-09,0.0,-0.00506139500066638,0.061581406742334366,0.991048162844464,0.5150601863861084,0.6525075435638428,0.5099987983703613,0.6508688926696777,2.9886131286621094,0.9986090660095215,,,,,,,
4636980000.0,79.29,0.7599999904632568,12041169408.0,1396.6719269081382,228.0,0.008850499987602234,937984.0,2411.6316714286804,1.554312234475219e-14,0.0,1.8225297927856445,-0.0182252898812294,0.0003257187781855464,-0.018225297331809998,6.51925802230835e-09,0.0,-0.004865268245339394,0.025058330968022346,0.9984684023641947,0.44519805908203125,0.6430749297142029,0.4403327703475952,0.6402945518493652,2.9326858520507812,0.9984917640686035,,,,,,,
4636980000.0,78.4,0.8299999833106995,12041169408.0,1448.4932927842058,229.0,0.009480917826294899,942080.0,2414.4594373703003,1.5409548637101977e-14,0.0,1.7375428676605225,-0.017375411465764046,0.0003480222658254206,-0.01737542822957039,1.6763806343078613e-08,0.0,-0.0040917485021054745,0.02606661058962345,0.9983541551097268,0.49352627992630005,0.6415544152259827,0.48943454027175903,0.6425251364707947,2.827765941619873,0.9989485740661621,,,,,,,
4636980000.0,79.24,0.7900000214576721,12041169408.0,1413.0521100244637,230.0,0.00846220925450325,946176.0,2417.3581273555756,1.6197113095195448e-14,0.0,1.7773915529251099,-0.017773905768990517,0.0006718909135088325,-0.017773915082216263,9.313225746154785e-09,0.0,-0.003802814055234194,0.03646429628133774,0.9966035035186169,0.37879660725593567,0.6280737519264221,0.37499380111694336,0.6256800293922424,2.8986899852752686,0.9984092712402344,,,,,,,
4636980000.0,77.8,0.7599999904632568,12041169408.0,1438.1700765425392,231.0,0.008473801426589489,950272.0,2420.2061910629272,1.427330476033717e-14,0.0,1.918489694595337,-0.019184865057468414,0.0003670347505249083,-0.01918489672243595,3.166496753692627e-08,0.0,-0.008822007104754448,0.025620339438319206,0.9980132263535587,0.386982798576355,0.5814749598503113,0.3781607747077942,0.5747919678688049,2.8480637073516846,0.9992141723632812,,,,,,,
4636980000.0,78.31,0.8100000023841858,12041169408.0,1425.1063329038902,232.0,0.007658427581191063,954368.0,2423.080362558365,1.4028708750224439e-14,0.0,1.9884532690048218,-0.019884523004293442,0.0011357052717357874,-0.019884532317519188,9.313225746154785e-09,0.0,-0.007280972320586443,0.04710562527179718,0.9931415515198115,0.38972029089927673,0.5764771103858948,0.3824393153190613,0.5688002705574036,2.874171495437622,0.9985382556915283,,,,,,,
4636980000.0,79.29,0.7300000190734863,12041169408.0,1471.5311950286193,233.0,0.00725539168342948,958464.0,2425.8638577461243,1.2803993976184813e-14,0.0,1.9160680770874023,-0.019160673022270203,0.0019510580459609628,-0.0191606804728508,7.450580596923828e-09,0.0,-0.012216025963425636,0.06126827374100685,0.9896416779973111,0.41305434703826904,0.6139612197875977,0.40083831548690796,0.6019923090934753,2.7834951877593994,0.9991629123687744,,,,,,,
4636980000.0,81.03,0.7200000286102295,12041169408.0,1440.5994871493858,234.0,0.007266855798661709,962560.0,2428.7071185112,1.6420892423596456e-14,0.0,1.7156996726989746,-0.017156993970274925,0.0007206733571365476,-0.017156995832920074,1.862645149230957e-09,0.0,-0.006279238499701023,0.0374467633664608,0.9972463534238858,0.5375177264213562,0.7189361453056335,0.5312384963035583,0.7136087417602539,2.8432607650756836,0.9980206489562988,,,,,,,
4636980000.0,81.71,0.800000011920929,12041169408.0,1414.350247159176,235.0,0.009564215317368507,966656.0,2431.603147983551,1.4141465776162931e-14,0.0,1.8083930015563965,-0.018083933740854263,0.00043306619045324624,-0.018083930015563965,-3.725290298461914e-09,0.0,-0.006616231054067612,0.028680285438895226,0.9980157106099735,0.5206459164619446,0.6488460302352905,0.5140296816825867,0.6438444256782532,2.896029472351074,0.9985153675079346,,,,,,,
4636980000.0,78.78,0.8299999833106995,12041169408.0,1420.8019043852582,236.0,0.009160434827208519,970752.0,2434.4860270023346,1.490300938211675e-14,0.0,1.7723515033721924,-0.017723513767123222,0.000663560873363167,-0.017723513767123222,0.0,0.0,-0.0015894437674432993,0.036399438977241516,0.9965479894730017,0.3946017026901245,0.6245481967926025,0.39301222562789917,0.6195247173309326,2.8828790187835693,0.9985706806182861,,,,,,,
4636980000.0,75.44,0.699999988079071,12041169408.0,1433.34783244954,237.0,0.0070894076488912106,974848.0,2437.343672513962,1.6807735758739284e-14,0.0,1.9247301816940308,-0.01924728974699974,0.0011253064731135964,-0.019247300922870636,1.1175870895385742e-08,0.0,-0.005717272404581308,0.04710061103105545,0.9919697762767865,0.3387935161590576,0.5329437255859375,0.33307626843452454,0.5256088972091675,2.8576455116271973,0.9985215663909912,,,,,,,
4636980000.0,75.86,0.7300000190734863,12041169408.0,1469.7268343879002,238.0,0.009186401031911373,978944.0,2440.1305849552155,1.488045797692905e-14,0.0,1.936082124710083,-0.01936081238090992,0.0010775430127978325,-0.019360821694135666,9.313225746154785e-09,0.0,-0.00404127174988389,0.04625231772661209,0.993606420392287,0.4057227671146393,0.5869496464729309,0.40168148279190063,0.5784441828727722,2.786912441253662,1.0007312297821045,,,,,,,
4636980000.0,80.08,0.9200000166893005,12041169408.0,1419.1076606212055,239.0,0.009825898334383965,983040.0,2443.016905784607,1.5225667948648436e-14,0.0,1.8172779083251953,-0.018172770738601685,0.0003423403250053525,-0.01817277818918228,7.450580596923828e-09,0.0,-0.00013355701230466366,0.02616925723850727,0.9983128879013777,0.5293501615524292,0.6391453742980957,0.5292165875434875,0.6371173858642578,2.8863208293914795,0.9982130527496338,,,,,,,
4636980000.0,83.87,1.0700000524520874,12041169408.0,1401.418754290756,240.0,0.011929725296795368,987136.0,2445.939658164978,1.596812959636651e-14,0.0,1.818986177444458,-0.01818985678255558,0.0004485138051677495,-0.01818986050784588,3.725290298461914e-09,0.0,0.004794005304574966,0.029567863792181015,0.9977745680658017,0.4837556481361389,0.6237928867340088,0.4885496497154236,0.6267766356468201,2.9227523803710938,0.9983978271484375,,,,,,,
4636980000.0,79.19,0.8500000238418579,12041169408.0,1451.5530497251957,241.0,0.00691734254360199,991232.0,2448.761463403702,1.67019176267047e-14,0.0,1.924868106842041,-0.019248688593506813,0.0004808154480997473,-0.019248681142926216,-7.450580596923828e-09,0.0,0.004087444394826889,0.03074336051940918,0.9966770663480806,0.297817587852478,0.5340179204940796,0.3019050359725952,0.5333232879638672,2.821805238723755,0.9987249374389648,,,,,,,
4636980000.0,76.95,0.6299999952316284,12041169408.0,1443.7234890474083,242.0,0.00692744180560112,995328.0,2451.5985717773438,1.4249018631673493e-14,0.0,1.8971693515777588,-0.018971696496009827,0.0003619268536567688,-0.018971692770719528,-3.725290298461914e-09,0.0,0.007510583847761154,0.025838106870651245,0.9979414083195429,0.32307547330856323,0.5635049343109131,0.3305860459804535,0.5694762468338013,2.8371083736419678,0.9985203742980957,,,,,,,
4636980000.0,79.86,0.6800000071525574,12041169408.0,1406.7415518508167,243.0,0.007148734759539366,999424.0,2454.510265111923,1.3119713648812592e-14,0.0,1.8795735836029053,-0.018795734271407127,0.00036253780126571655,-0.018795736134052277,1.862645149230957e-09,0.0,0.006027379538863897,0.026247180998325348,0.9981032615820801,0.43838661909103394,0.6006054282188416,0.444413959980011,0.6026691198348999,2.9116933345794678,0.9985365867614746,,,,,,,
4636980000.0,81.33,0.7300000190734863,12041169408.0,1421.3186333561534,244.0,0.009264281019568443,1003520.0,2457.392096042633,1.3815337762679292e-14,0.0,1.9141783714294434,-0.019141804426908493,0.0004160099197179079,-0.01914178393781185,-2.1420419216156006e-08,0.0,0.008836539462208748,0.027461236342787743,0.9980001444299402,0.4532168507575989,0.607474148273468,0.4620533883571625,0.6140741109848022,2.881830930709839,0.9986155033111572,,,,,,,
4636980000.0,81.85,0.8799999952316284,12041169408.0,1416.455778375585,245.0,0.008854181505739689,1007616.0,2460.28382062912,1.5780779460961014e-14,0.0,1.86103093624115,-0.018610309809446335,0.00042715080780908465,-0.018610309809446335,9.313225746154785e-10,0.0,0.005798070691525936,0.028651082888245583,0.9977345579354646,0.37966907024383545,0.6014401912689209,0.38546714186668396,0.601955771446228,2.8917245864868164,0.998537540435791,,,,,,,
4636980000.0,79.03,0.7599999904632568,12041169408.0,1411.1790863966885,246.0,0.0078114671632647514,1011712.0,2463.186357975006,1.482668154917377e-14,0.0,1.8605687618255615,-0.018605690449476242,0.0003154477453790605,-0.018605686724185944,-3.725290298461914e-09,0.0,0.005985678639262915,0.024396976456046104,0.9983998094657943,0.39338913559913635,0.6070794463157654,0.3993748426437378,0.6098880767822266,2.9025373458862305,0.9994862079620361,,,,,,,
4636980000.0,75.61,0.7099999785423279,12041169408.0,1384.9601042194445,247.0,0.008668676018714905,1015808.0,2466.1438438892365,1.433228535852038e-14,0.0,1.9455804824829102,-0.019455812871456146,0.00030643417267128825,-0.0194558035582304,-9.313225746154785e-09,0.0,0.00619682390242815,0.023970982059836388,0.9979830919513749,0.3650050163269043,0.5295553207397461,0.3712018132209778,0.5337560176849365,2.9574859142303467,0.9988358020782471,,,,,,,
4636980000.0,72.71,0.6700000166893005,12041169408.0,1413.3734267154127,248.0,0.006987429223954678,1019904.0,2469.041874885559,1.4963724703775938e-14,0.0,1.9212801456451416,-0.019212797284126282,0.00021321421081665903,-0.01921280100941658,3.725290298461914e-09,0.0,0.0038612193893641233,0.020288417115807533,0.9985817510629835,0.31069284677505493,0.5365176796913147,0.3145540952682495,0.538731038570404,2.898030996322632,0.998466968536377,,,,,,,
4636980000.0,75.66,0.6600000262260437,12041169408.0,1428.8287086641822,249.0,0.007634197827428579,1024000.0,2471.9085586071014,1.4137996329210978e-14,0.0,1.9664089679718018,-0.01966407522559166,0.0003022461896762252,-0.019664090126752853,1.4901161193847656e-08,0.0,0.005430168472230434,0.023982200771570206,0.998181178599177,0.3901197016239166,0.5570589900016785,0.39554986357688904,0.5623335838317871,2.8666837215423584,0.998427152633667,,,,,,,
4636980000.0,80.45,0.7599999904632568,12041169408.0,1424.8720681561808,250.0,0.009341970086097717,1028096.0,2474.783202648163,1.3518700048287258e-14,0.0,1.96515953540802,-0.019651569426059723,0.00034282065462321043,-0.019651595503091812,2.60770320892334e-08,0.0,0.004478964023292065,0.025801990181207657,0.9979642383147278,0.3813343644142151,0.5673476457595825,0.38581332564353943,0.5718600749969482,2.8746440410614014,0.9984297752380371,,,,,,,
4636980000.0,79.28,0.8500000238418579,12041169408.0,1370.1742211321714,251.0,0.009354306384921074,1032192.0,2477.7726035118103,1.5553530685608052e-14,0.0,1.7946819067001343,-0.017946818843483925,0.00027124796179123223,-0.017946818843483925,0.0,0.0,0.0005469199968501925,0.02328796125948429,0.9986382335935067,0.45922428369522095,0.6314738392829895,0.45977118611335754,0.6310737729072571,2.989400863647461,0.9986276626586914,,,,,,,
4636980000.0,82.05,0.9100000262260437,12041169408.0,1408.3342200933278,252.0,0.00958067923784256,1036288.0,2480.681004047394,1.5246484630360158e-14,0.0,1.8017816543579102,-0.018017813563346863,0.000297531601972878,-0.018017815425992012,1.862645149230957e-09,0.0,0.0008519417606294155,0.024382010102272034,0.9984951325288132,0.5268194675445557,0.6281223297119141,0.5276713967323303,0.6285218000411987,2.908400535583496,0.9984745979309082,,,,,,,
4636980000.0,82.62,0.8799999952316284,12041169408.0,1432.9913132372706,253.0,0.010231716558337212,1040384.0,2483.539360523224,1.5439038936193583e-14,0.0,1.8505380153656006,-0.018505387008190155,0.0005162950837984681,-0.018505379557609558,-6.51925802230835e-09,0.0,-0.0023119933903217316,0.03205457329750061,0.9971186170222777,0.4305819272994995,0.5993609428405762,0.4282699227333069,0.5971583127975464,2.858356475830078,0.9990229606628418,,,,,,,
4636980000.0,80.5,0.8600000143051147,12041169408.0,1414.3050707256707,254.0,0.008109292015433311,1044480.0,2486.4354825019836,1.5855372570428017e-14,0.0,1.7482200860977173,-0.017482208088040352,0.014087279327213764,-0.017482200637459755,-7.450580596923828e-09,0.0,-0.016634050756692886,0.1670469343662262,0.9460796260662698,0.5154056549072266,0.6862804293632507,0.4987715482711792,0.7193860411643982,2.8961219787597656,0.9986052513122559,,,,,,,
