CpuMaxMemory,EpLenMean,EpRewMean,GpuMaxMemory,IPS_total,Iter,Misc/FrameRewMean,Misc/InteractCount,Misc/TimeElapsed,Opt/approxkl,Opt/clipfrac,Opt/entropy,Opt/loss_pi,Opt/loss_vf,Opt/negent,Opt/pg,Opt/pi_kl,VFStats/AdvMean,VFStats/AdvStd,VFStats/EV,VFStats/VpredMean,VFStats/VpredStd,VFStats/VtargMean,VFStats/VtargStd,del_time,wait_optimization,scaled/pol_distance,scaled/vf_aux,scaled/vf_true,unscaled/pol_distance,unscaled/vf_aux,unscaled/vf_true,EvalEpMean
3034892000.0,78.72727272727273,-3.1363637447357178,11965495808.0,1758.19202284398,0.0,-0.019114337861537933,4096.0,2.3296658992767334,2.213507155346406e-15,0.0,2.7076590061187744,-0.027076581493020058,0.20177021622657776,-0.027076588943600655,7.450580596923828e-09,0.0,-0.2655498683452606,0.5771525502204895,-0.0018420047333347345,-0.050225719809532166,0.01705840229988098,-0.315775603055954,0.5766216516494751,2.3296658992767334,1.0234618186950684,,,,,,,
3085372000.0,80.02173913043478,-3.2173912525177,12031147008.0,1861.068467692017,1.0,-0.020264502614736557,8192.0,4.53055214881897,2.581268532253489e-15,0.0,2.7068262100219727,-0.027068275958299637,0.20237872004508972,-0.027068261057138443,-1.4901161193847656e-08,0.0,-0.1771257221698761,0.6111261248588562,0.0067868204607974825,-0.45184382796287537,0.07239950448274612,-0.6289695501327515,0.6132105588912964,2.2008862495422363,0.9971370697021484,,,,,,,
3134736000.0,83.13,-3.319999933242798,12031147008.0,1880.2951214616419,2.0,-0.015654174610972404,12288.0,6.708933591842651,2.9004576518332215e-15,0.0,2.70499849319458,-0.027049977332353592,0.2158186435699463,-0.02704998478293419,7.450580596923828e-09,0.0,0.023270469158887863,0.656658947467804,0.016544092790215514,-1.0853396654129028,0.19477073848247528,-1.0620691776275635,0.6621592044830322,2.1783814430236816,0.9970438480377197,,,,,,,
3183840000.0,81.58,-2.940000057220459,12031147008.0,1804.1748781752617,3.0,-0.015733931213617325,16384.0,8.979223489761353,3.4833247397614286e-15,0.0,2.7023329734802246,-0.0270233191549778,0.27333223819732666,-0.027023328468203545,9.313225746154785e-09,0.0,0.10818333923816681,0.731499433517456,0.1041193528704647,-1.5873197317123413,0.23321999609470367,-1.479136347770691,0.7728387117385864,2.270289897918701,0.997072696685791,,,,,,,
3233208000.0,81.65,-2.5,12031147008.0,1857.4419914178607,4.0,-0.013013316318392754,20480.0,11.184406757354736,3.684552662974738e-15,0.0,2.6956849098205566,-0.026956837624311447,0.24812284111976624,-0.026956848800182343,1.1175870895385742e-08,0.0,0.11463545262813568,0.6951419711112976,-0.007419503113029302,-1.2957154512405396,0.21448995172977448,-1.1810801029205322,0.6925776600837708,2.205183267593384,0.9972655773162842,,,,,,,
3282312000.0,81.55,-2.549999952316284,12031147008.0,1849.1656178294504,5.0,-0.014294210821390152,24576.0,13.399459838867188,4.066191827689636e-15,0.0,2.6921279430389404,-0.02692127227783203,0.1700396090745926,-0.026921279728412628,7.450580596923828e-09,0.0,-0.020144548267126083,0.5828862190246582,0.035231701989800746,-0.8441712856292725,0.15760506689548492,-0.8643157482147217,0.5934337973594666,2.215053081512451,0.9966340065002441,,,,,,,
3331416000.0,87.4,-2.859999895095825,12031147008.0,1855.4760216779139,6.0,-0.011757906526327133,28672.0,15.606979608535767,3.4833247397614286e-15,0.0,2.6890926361083984,-0.026890937238931656,0.14072002470493317,-0.02689092606306076,-1.1175870895385742e-08,0.0,-0.04927930235862732,0.5282799601554871,0.049438218004612566,-0.6393802165985107,0.1220262423157692,-0.6886595487594604,0.5418436527252197,2.207519769668579,0.9971795082092285,,,,,,,
3380784000.0,90.52,-2.890000104904175,12031147008.0,1876.0601850805342,7.0,-0.017750602215528488,32768.0,17.790278434753418,3.989863994746656e-15,0.0,2.6874117851257324,-0.026874102652072906,0.18536730110645294,-0.0268741175532341,1.4901161193847656e-08,0.0,-0.16053195297718048,0.5874081254005432,0.10102783263071324,-0.5558786392211914,0.1089673712849617,-0.7164105772972107,0.6195363998413086,2.1832988262176514,0.9967527389526367,,,,,,,
3429888000.0,81.74,-2.799999952316284,12031147008.0,1817.1671759991639,8.0,-0.014512263238430023,36864.0,20.044336318969727,4.565792188770956e-15,0.0,2.6797897815704346,-0.02679789438843727,0.15844397246837616,-0.02679789811372757,3.725290298461914e-09,0.0,-0.05487373471260071,0.5603155493736267,0.10012783844134232,-0.5531242489814758,0.13493312895298004,-0.6079980134963989,0.5906662940979004,2.2540578842163086,0.9966464042663574,,,,,,,
3478992000.0,83.88,-2.369999885559082,12031147008.0,1872.1545387070898,9.0,-0.010053827427327633,40960.0,22.232189893722534,5.218048215738236e-15,0.0,2.672276020050049,-0.026722757145762444,0.1369471698999405,-0.026722759008407593,1.862645149230957e-09,0.0,-0.028173115104436874,0.522654116153717,0.15663189216039886,-0.6166014075279236,0.1656041443347931,-0.6447745561599731,0.5691225528717041,2.1878535747528076,0.9966576099395752,,,,,,,
3528360000.0,82.79,-2.049999952316284,12031147008.0,1835.3833607663628,10.0,-0.012503613717854023,45056.0,24.463876247406006,5.169475958410885e-15,0.0,2.6572139263153076,-0.02657213807106018,0.1380193531513214,-0.02657213807106018,0.0,0.0,-0.0017930883914232254,0.5254549384117126,0.07860411980714554,-0.6876526474952698,0.21026656031608582,-0.6894457340240479,0.5474095940589905,2.2316863536834717,0.9970717430114746,,,,,,,
3577464000.0,77.39,-2.0799999237060547,12031147008.0,1829.5737171534172,11.0,-0.012782420963048935,49152.0,26.702649116516113,5.816527814950234e-15,0.0,2.613135814666748,-0.026131361722946167,0.15685123205184937,-0.02613135799765587,-3.725290298461914e-09,0.0,0.023238491266965866,0.5596774816513062,0.09509797076076754,-0.804038405418396,0.22464825212955475,-0.7807998657226562,0.5883517265319824,2.2387728691101074,0.99664306640625,,,,,,,
3626832000.0,79.03,-1.7899999618530273,12031147008.0,1810.683025191662,12.0,-0.009572590701282024,53248.0,28.964778900146484,6.316128176031555e-15,0.0,2.587892532348633,-0.025878943502902985,0.13896194100379944,-0.025878924876451492,-1.862645149230957e-08,0.0,0.05971909314393997,0.5238553881645203,0.14609346112550614,-0.7838761210441589,0.259226530790329,-0.7241570949554443,0.5668998956680298,2.262129783630371,0.9968781471252441,,,,,,,
3675936000.0,79.4,-1.690000057220459,12031147008.0,1824.9515246481337,13.0,-0.011268269270658493,57344.0,31.209222078323364,6.175615574477433e-15,0.0,2.528870105743408,-0.025288710370659828,0.12617895007133484,-0.025288701057434082,-9.313225746154785e-09,0.0,0.06580018997192383,0.4980851113796234,0.18512625236997338,-0.7699602842330933,0.2628737986087799,-0.7041600346565247,0.5517703890800476,2.24444317817688,0.9986965656280518,,,,,,,
3725040000.0,77.47,-1.600000023841858,12031147008.0,1850.0782502907864,14.0,-0.010416435077786446,61440.0,33.42318248748779,6.2276572787567375e-15,0.0,2.52974796295166,-0.025297485291957855,0.13656122982501984,-0.025297479704022408,-5.587935447692871e-09,0.0,0.04484574496746063,0.5207470655441284,0.05394110508051364,-0.7193723917007446,0.2391333132982254,-0.674526572227478,0.5353869199752808,2.2139604091644287,0.9966299533843994,,,,,,,
3774408000.0,74.01,-1.649999976158142,12031147008.0,1873.1463760556426,15.0,-0.011722282506525517,65536.0,35.609877586364746,5.792241686286559e-15,0.0,2.529987335205078,-0.02529986947774887,0.1484074592590332,-0.02529987320303917,3.725290298461914e-09,0.0,-0.00884924829006195,0.5448018312454224,0.04936184172699232,-0.6445093154907227,0.18272943794727325,-0.6533585786819458,0.5587672591209412,2.186695098876953,0.9966623783111572,,,,,,,
3823512000.0,73.39,-1.5700000524520874,12031147008.0,1825.586823200771,16.0,-0.0074601806700229645,69632.0,37.85353970527649,6.985731437758602e-15,0.0,2.529353141784668,-0.025293534621596336,0.1087626963853836,-0.025293530896306038,-3.725290298461914e-09,0.0,0.031223470345139503,0.4654066860675812,0.1289143467736935,-0.5344547629356384,0.1638648360967636,-0.5032312870025635,0.49865737557411194,2.243662118911743,0.9966845512390137,,,,,,,
3872880000.0,71.04,-1.409999966621399,12031147008.0,1790.5815717736325,17.0,-0.011133173480629921,73728.0,40.14106464385986,6.692563170318522e-15,0.0,2.4884145259857178,-0.02488415502011776,0.1271885633468628,-0.024884143844246864,-1.1175870895385742e-08,0.0,-0.03245494142174721,0.5033742785453796,0.07397218360103541,-0.4770113229751587,0.13708560168743134,-0.509466290473938,0.5230931639671326,2.287524938583374,0.9965825080871582,,,,,,,
3922248000.0,72.91,-1.1799999475479126,12031147008.0,1870.7713150860234,18.0,-0.005245740059763193,77824.0,42.330535888671875,7.044712035941814e-15,0.0,2.3434503078460693,-0.023434516042470932,0.0822899341583252,-0.023434503003954887,-1.30385160446167e-08,0.0,0.02344505861401558,0.4050558805465698,0.11626696576884699,-0.4326084554195404,0.1250203251838684,-0.40916335582733154,0.43087804317474365,2.1894712448120117,0.9967193603515625,,,,,,,
3971616000.0,76.48,-1.0299999713897705,12031147008.0,1830.7080038992885,19.0,-0.008709898218512535,81920.0,44.56792163848877,7.030834248133999e-15,0.0,2.3831233978271484,-0.023831237107515335,0.10572561621665955,-0.023831233382225037,-3.725290298461914e-09,0.0,-0.014777871780097485,0.45965686440467834,0.07479257643434711,-0.39114582538604736,0.11828529089689255,-0.4059237241744995,0.47787490487098694,2.2373857498168945,0.9971024990081787,,,,,,,
4021248000.0,80.0,-1.4700000286102295,12031147008.0,1819.2469302356906,20.0,-0.01183386892080307,86016.0,46.81940269470215,6.303985111699717e-15,0.0,2.4025301933288574,-0.02402530610561371,0.13332432508468628,-0.02402530051767826,-4.6566128730773926e-09,0.0,-0.0997442752122879,0.5067172050476074,0.05267371679377808,-0.3646542429924011,0.1029849499464035,-0.4643985629081726,0.5206142067909241,2.251481056213379,0.9971046447753906,,,,,,,
4070616000.0,77.39,-1.7799999713897705,12031147008.0,1833.8532511274068,21.0,-0.013176009058952332,90112.0,49.0529510974884,6.158268339717665e-15,0.0,2.5300564765930176,-0.025300564244389534,0.16229116916656494,-0.025300564244389534,0.0,0.0,-0.0905633419752121,0.562545895576477,0.12205706735554223,-0.3382229506969452,0.11881648004055023,-0.4287862777709961,0.6003780364990234,2.233548402786255,0.9968616962432861,,,,,,,
4120248000.0,74.96,-1.6699999570846558,12031147008.0,1857.8816942106755,22.0,-0.009039068594574928,94208.0,51.257612466812134,5.766220834146907e-15,0.0,2.5155272483825684,-0.025155268609523773,0.12561964988708496,-0.02515527233481407,3.725290298461914e-09,0.0,-0.047144822776317596,0.49907663464546204,0.08160012908726855,-0.3662836253643036,0.11969931423664093,-0.4134284257888794,0.5207763910293579,2.2046613693237305,0.997044563293457,,,,,,,
4169880000.0,84.81,-1.8200000524520874,12031147008.0,1826.9920223222266,23.0,-0.014821426942944527,98304.0,53.49954891204834,5.9396931817445875e-15,0.0,2.470618486404419,-0.024706192314624786,0.16426298022270203,-0.02470618486404419,-7.450580596923828e-09,0.0,-0.10377557575702667,0.5637678503990173,0.021106817134240674,-0.41661548614501953,0.13331378996372223,-0.5203911066055298,0.5698134303092957,2.241936445236206,0.996605634689331,,,,,,,
4219248000.0,80.76,-2.049999952316284,12031147008.0,1878.57625842058,24.0,-0.01179582066833973,102400.0,55.67992353439331,6.007347397307683e-15,0.0,2.490318775177002,-0.0249031949788332,0.13121390342712402,-0.0249031875282526,-7.450580596923828e-09,0.0,-0.016869504004716873,0.5120617151260376,0.14501363599081807,-0.5125194191932678,0.15429453551769257,-0.529388964176178,0.5537869334220886,2.1803746223449707,0.996774435043335,,,,,,,
4269144000.0,76.94,-1.399999976158142,12031147008.0,1788.2276045946767,25.0,-0.006790499668568373,106496.0,57.97045969963074,5.920611223508843e-15,0.0,2.4516282081604004,-0.024516288191080093,0.12415210902690887,-0.024516280740499496,-7.450580596923828e-09,0.0,0.040105387568473816,0.49674540758132935,0.15892876940350031,-0.6101288199424744,0.1804274618625641,-0.5700234174728394,0.5416484475135803,2.2905361652374268,0.9967591762542725,,,,,,,
4318512000.0,86.92,-0.949999988079071,12031147008.0,1852.1456034709342,26.0,-0.0035523634869605303,110592.0,60.18194890022278,7.029099524658022e-15,0.0,2.437126398086548,-0.02437126636505127,0.10449591279029846,-0.02437126263976097,-3.725290298461914e-09,0.0,0.10599831491708755,0.44475215673446655,0.24143293732990645,-0.6915108561515808,0.1959829032421112,-0.5855125188827515,0.5106472969055176,2.211489200592041,0.9969229698181152,,,,,,,
4368144000.0,83.13,-1.0099999904632568,12031147008.0,1859.2364588007163,27.0,-0.007427079137414694,114688.0,62.38500380516052,6.5069477583890034e-15,0.0,2.4552226066589355,-0.024552226066589355,0.10672102868556976,-0.024552226066589355,0.0,0.0,0.0791865810751915,0.45521655678749084,0.2179889767606068,-0.7132458686828613,0.22003953158855438,-0.6340591907501221,0.5147680044174194,2.203054904937744,0.9968383312225342,,,,,,,
4417512000.0,74.34,-1.0499999523162842,12031147008.0,1805.3697004955031,28.0,-0.010693687945604324,118784.0,64.65379118919373,6.449701883681769e-15,0.0,2.46867036819458,-0.02468671090900898,0.13710737228393555,-0.024686703458428383,-7.450580596923828e-09,0.0,0.010291360318660736,0.5236179232597351,0.23286733044667984,-0.6112567186355591,0.21077339351177216,-0.6009653806686401,0.597832202911377,2.268787384033203,0.9967982769012451,,,,,,,
4467408000.0,74.13,-1.2400000095367432,12031147008.0,1838.793834535123,29.0,-0.008464556187391281,122880.0,66.88133835792542,5.712444406391626e-15,0.0,2.455914258956909,-0.024559149518609047,0.12644216418266296,-0.02455914206802845,-7.450580596923828e-09,0.0,0.015643035992980003,0.5026940703392029,0.23490479081324533,-0.5337235927581787,0.19681206345558167,-0.5180805325508118,0.5747064352035522,2.2275471687316895,0.996633768081665,,,,,,,
4516776000.0,72.86,-1.5099999904632568,12031147008.0,1815.7582363970348,30.0,-0.012923908419907093,126976.0,69.13714528083801,6.250208683944436e-15,0.0,2.422402858734131,-0.024224024266004562,0.149189293384552,-0.02422402799129486,4.6566128730773926e-09,0.0,-0.03589536249637604,0.5451263189315796,0.1628133709508024,-0.4454132616519928,0.18272200226783752,-0.48130857944488525,0.5957801342010498,2.2558069229125977,0.9971644878387451,,,,,,,
4566288000.0,76.79,-1.4500000476837158,12031147008.0,1848.5685034884734,31.0,-0.009022435173392296,131072.0,71.35291385650635,5.819997261902188e-15,0.0,2.3717286586761475,-0.023717287927865982,0.12453547865152359,-0.023717286065220833,-1.862645149230957e-09,0.0,-0.027334321290254593,0.4983818233013153,0.1552089615367721,-0.38977470993995667,0.17570216953754425,-0.41710907220840454,0.5422350168228149,2.215768575668335,0.9970564842224121,,,,,,,
,,,,,,,,,,,,,,,,,,,,,,,,,,0.00515027204528451,0.17964975535869598,0.16545119881629944,0.00515027204528451,0.17964975535869598,0.16545119881629944,
,,,,,,,,,,,,,,,,,,,,,,,,,,0.002796996384859085,0.15121063590049744,0.14387987554073334,0.002796996384859085,0.15121063590049744,0.14387987554073334,
,,,,,,,,,,,,,,,,,,,,,,,,,,0.0025580492801964283,0.13949960470199585,0.13463184237480164,0.0025580492801964283,0.13949960470199585,0.13463184237480164,
,,,,,,,,,,,,,,,,,,,,,,,,,,0.003053101943805814,0.13233810663223267,0.12765979766845703,0.003053101943805814,0.13233810663223267,0.12765979766845703,
,,,,,,,,,,,,,,,,,,,,,,,,,,0.002033818047493696,0.1275814175605774,0.12144656479358673,0.002033818047493696,0.1275814175605774,0.12144656479358673,
,,,,,,,,,,,,,,,,,,,,,,,,,,0.002210367238149047,0.11917700618505478,0.11427241563796997,0.002210367238149047,0.11917700618505478,0.11427241563796997,
,,,,,,,,,,,,,,,,,,,,,,,,,,,,,,,,-1.66
4585672000.0,79.9,-1.3899999856948853,11990518784.0,17.044205692437398,32.0,-0.01179894432425499,135168.0,311.66918754577637,5.110495360227674e-15,0.0,2.4180235862731934,-0.02418024279177189,0.1578279584646225,-0.024180235341191292,-7.450580596923828e-09,0.0,-0.0155594227835536,0.5616857409477234,0.5404881510748885,-0.5733505487442017,0.41616562008857727,-0.588909924030304,0.8286001682281494,240.31627368927002,0.9971368312835693,,,,,,,
4585672000.0,81.0,-1.840000033378601,12041169408.0,1832.356959505776,33.0,-0.011471018195152283,139264.0,313.90455985069275,5.249273238305818e-15,0.0,2.36588191986084,-0.023658808320760727,0.12445158511400223,-0.023658819496631622,1.1175870895385742e-08,0.0,0.020676132291555405,0.4985342025756836,0.5448704746328172,-0.5951687097549438,0.40048494935035706,-0.5744925141334534,0.7389711141586304,2.235372304916382,0.9968900680541992,,,,,,,
4585672000.0,78.58,-1.3700000047683716,12041169408.0,1843.3148142803266,34.0,-0.0049758972600102425,143360.0,316.1266436576843,5.06886199680423e-15,0.0,2.3344273567199707,-0.02334427647292614,0.07258668541908264,-0.02334427274763584,-3.725290298461914e-09,0.0,0.15249468386173248,0.3492112457752228,0.5631287297366216,-0.6191651821136475,0.4165534973144531,-0.46667051315307617,0.5283375978469849,2.222083806991577,0.9971339702606201,,,,,,,
4585672000.0,73.28,-0.9800000190734863,12041169408.0,1863.7326775142953,35.0,-0.00891873612999916,147456.0,318.32438373565674,5.259681579161679e-15,0.0,2.3144965171813965,-0.023144986480474472,0.07381955534219742,-0.02314496412873268,-2.2351741790771484e-08,0.0,0.09529729187488556,0.3722786009311676,0.6679680344634695,-0.542899489402771,0.43360254168510437,-0.44760221242904663,0.6460678577423096,2.197740077972412,0.9968581199645996,,,,,,,
4585672000.0,72.51,-0.9700000286102295,12041169408.0,1819.0550735293496,36.0,-0.004480406176298857,151552.0,320.5761022567749,5.0948828489438824e-15,0.0,2.25042724609375,-0.022504271939396858,0.09608091413974762,-0.022504271939396858,0.0,0.0,0.07582750916481018,0.4318073093891144,0.5850934367633177,-0.563590407371521,0.4835372865200043,-0.4877629280090332,0.67037034034729,2.251718521118164,0.9966893196105957,,,,,,,
4585672000.0,78.28,-0.7799999713897705,12041169408.0,1826.3107024641881,37.0,-0.005882589146494865,155648.0,322.8188750743866,5.367234434672241e-15,0.0,2.236389636993408,-0.022363901138305664,0.06528111547231674,-0.022363895550370216,-5.587935447692871e-09,0.0,0.06467695534229279,0.35554179549217224,0.6309037975438976,-0.4365119934082031,0.4272269308567047,-0.37183502316474915,0.5852223634719849,2.2427728176116943,0.9966371059417725,,,,,,,
4585672000.0,80.32,-0.7799999713897705,12041169408.0,1775.4197958334362,38.0,-0.005634819157421589,159744.0,325.12593507766724,5.5355026118419914e-15,0.0,2.2241904735565186,-0.022241925820708275,0.09560006856918335,-0.022241903468966484,-2.2351741790771484e-08,0.0,0.054811544716358185,0.433868408203125,0.5883874262980291,-0.4456620216369629,0.48981571197509766,-0.3908504843711853,0.6762599945068359,2.3070600032806396,0.9965982437133789,,,,,,,
4585672000.0,79.82,-0.8899999856948853,12041169408.0,1859.476130714591,39.0,-0.006494474597275257,163840.0,327.32870602607727,5.3186621773448906e-15,0.0,2.232942819595337,-0.0223294235765934,0.07131342589855194,-0.022329427301883698,3.725290298461914e-09,0.0,0.05288979783654213,0.3739835023880005,0.6311863482516205,-0.37687402963638306,0.4596659243106842,-0.3239842653274536,0.615813136100769,2.202770948410034,0.9968230724334717,,,,,,,
4585672000.0,80.18,-0.5699999928474426,12041169408.0,1863.9797794628225,40.0,-0.004449829459190369,167936.0,329.526154756546,5.542441505745899e-15,0.0,2.2137317657470703,-0.022137325257062912,0.07150521874427795,-0.022137317806482315,-7.450580596923828e-09,0.0,0.055319227278232574,0.37414491176605225,0.6024578631231634,-0.3493782877922058,0.49100086092948914,-0.29405903816223145,0.5934009552001953,2.19744873046875,0.9966466426849365,,,,,,,
4585672000.0,80.45,-0.5899999737739563,12041169408.0,1807.6634765757963,41.0,-0.005453059449791908,172032.0,331.7920632362366,5.7870375158586285e-15,0.0,2.2782692909240723,-0.022782715037465096,0.07379578053951263,-0.022782692685723305,-2.2351741790771484e-08,0.0,0.016621127724647522,0.3838635981082916,0.5255789456049932,-0.26679712533950806,0.3815331757068634,-0.25017601251602173,0.5573076009750366,2.2659084796905518,0.9971420764923096,,,,,,,
4585672000.0,78.98,-1.2599999904632568,12041169408.0,1873.3400079121411,42.0,-0.012356899678707123,176128.0,333.97853231430054,6.312658729079601e-15,0.0,2.248258113861084,-0.022482575848698616,0.08421092480421066,-0.022482581436634064,5.587935447692871e-09,0.0,-0.08762598782777786,0.4009772837162018,0.6790682305977767,-0.29533451795578003,0.4555404782295227,-0.3829604983329773,0.7078046798706055,2.186469078063965,0.9966990947723389,,,,,,,
4585672000.0,77.94,-1.399999976158142,12041169408.0,1811.4430704341455,43.0,-0.007761343382298946,180224.0,336.2397129535675,5.4903998014665945e-15,0.0,2.279142379760742,-0.022791409865021706,0.07087342441082001,-0.02279142290353775,1.30385160446167e-08,0.0,-0.031864188611507416,0.37518778443336487,0.6214948759455923,-0.21694457530975342,0.41750016808509827,-0.24880877137184143,0.609835684299469,2.2611806392669678,0.9973940849304199,,,,,,,
4585672000.0,80.68,-0.949999988079071,12041169408.0,1819.9573063155542,44.0,-0.005106723867356777,184320.0,338.4903151988983,5.797445856714489e-15,0.0,2.295961618423462,-0.022959619760513306,0.07874888181686401,-0.022959616035223007,-3.725290298461914e-09,0.0,0.006295989267528057,0.3968583643436432,0.5035225994602348,-0.2465689778327942,0.4094417095184326,-0.24027298390865326,0.563230037689209,2.2506022453308105,0.9969315528869629,,,,,,,
4585672000.0,85.72,-0.6000000238418579,12041169408.0,1881.2282415900902,45.0,-0.0039885519072413445,188416.0,340.6676161289215,6.212044767472946e-15,0.0,2.312591314315796,-0.0231259074062109,0.09021386504173279,-0.023125912994146347,5.587935447692871e-09,0.0,0.0048098452389240265,0.42479246854782104,0.550871681654308,-0.22468619048595428,0.44516831636428833,-0.21987634897232056,0.6338574290275574,2.1773009300231934,0.9967555999755859,,,,,,,
4585672000.0,89.64,-0.5400000214576721,12041169408.0,1808.1524281998568,46.0,-0.0051486617885529995,192512.0,342.93291187286377,5.710709682915649e-15,0.0,2.240584373474121,-0.022405847907066345,0.09675347059965134,-0.022405842319130898,-6.51925802230835e-09,0.0,-0.006158699747174978,0.4399048388004303,0.5434522570869813,-0.25672003626823425,0.47252675890922546,-0.26287874579429626,0.651051938533783,2.2652957439422607,0.9967865943908691,,,,,,,
4585672000.0,88.83,-0.46000000834465027,12041169408.0,1823.1409481211635,47.0,-2.9103830456733704e-11,196608.0,345.17958402633667,5.738465258531278e-15,0.0,2.2579665184020996,-0.02257966250181198,0.050604961812496185,-0.02257966436445713,1.3969838619232178e-09,0.0,0.07931312173604965,0.3081274628639221,0.49296618240417955,-0.18980737030506134,0.4103870689868927,-0.11049425601959229,0.4327249228954315,2.2466721534729004,0.9976634979248047,,,,,,,
4585672000.0,89.73,-0.3799999952316284,12041169408.0,1843.806622922254,48.0,-0.003469326999038458,200704.0,347.4010751247406,5.533767888366015e-15,0.0,2.2776269912719727,-0.022776277735829353,0.09154181182384491,-0.022776270285248756,-7.450580596923828e-09,0.0,0.032605573534965515,0.4266906678676605,0.6382236408101083,-0.25912848114967346,0.55076003074646,-0.22652292251586914,0.7094030976295471,2.2214910984039307,0.9986896514892578,,,,,,,
4585672000.0,85.95,-0.3400000035762787,12041169408.0,1855.1552418253225,49.0,-0.003924177028238773,204800.0,349.6089766025543,5.755812493291046e-15,0.0,2.2282533645629883,-0.02228253334760666,0.08477294445037842,-0.02228253334760666,0.0,0.0,0.024412158876657486,0.4110853970050812,0.5579504881469948,-0.24561135470867157,0.5158601403236389,-0.2211991846561432,0.6182961463928223,2.2079014778137207,0.9969401359558105,,,,,,,
4585672000.0,88.18,-0.6200000047683716,12041169408.0,1861.6319272089872,50.0,-0.004236854147166014,208896.0,351.80919671058655,5.7332610881033474e-15,0.0,2.279435157775879,-0.02279435470700264,0.08601602911949158,-0.02279435098171234,-3.725290298461914e-09,0.0,-0.008193884044885635,0.41473719477653503,0.6049038455431118,-0.18291881680488586,0.5117064714431763,-0.1911126971244812,0.6598140001296997,2.2002201080322266,0.9965109825134277,,,,,,,
4585672000.0,85.99,-0.6899999976158142,12041169408.0,1855.2421880534453,51.0,-0.0038220311980694532,212992.0,354.01699471473694,5.455705331947058e-15,0.0,2.2702460289001465,-0.02270246297121048,0.04821795970201492,-0.02270245924592018,-3.725290298461914e-09,0.0,-0.006435963325202465,0.3105125427246094,0.7255712639884437,-0.12953722476959229,0.45955413579940796,-0.13597318530082703,0.5927401781082153,2.2077980041503906,0.9969992637634277,,,,,,,
4585672000.0,83.94,-0.41999998688697815,12041169408.0,1843.8808324444788,52.0,-0.0011832125019282103,217088.0,356.2383964061737,6.127043317150083e-15,0.0,2.230532646179199,-0.022305315360426903,0.047759562730789185,-0.022305326536297798,1.1175870895385742e-08,0.0,0.023053012788295746,0.30823835730552673,0.5197456175470034,-0.06351661682128906,0.342550665140152,-0.040463607758283615,0.44478586316108704,2.2214016914367676,0.9973690509796143,,,,,,,
4585672000.0,84.3,-0.1599999964237213,12041169408.0,1881.038330553726,53.0,-0.0005952228093519807,221184.0,358.41591715812683,6.035102972923312e-15,0.0,2.2555952072143555,-0.022555964067578316,0.05254985764622688,-0.02255595102906227,-1.30385160446167e-08,0.0,0.03629542142152786,0.3221920132637024,0.6085348472237184,-0.1085599809885025,0.4218922257423401,-0.07226455211639404,0.5149537324905396,2.177520751953125,0.9967470169067383,,,,,,,
4585672000.0,87.41,-0.1599999964237213,12041169408.0,1850.9092239546108,54.0,-0.0008973430376499891,225280.0,360.628883600235,5.859895901849654e-15,0.0,2.215059757232666,-0.022150598466396332,0.058056220412254333,-0.022150596603751183,-1.862645149230957e-09,0.0,0.024204839020967484,0.33993348479270935,0.4239562947671649,-0.012845969758927822,0.3055502474308014,0.011358870193362236,0.4478847086429596,2.2129664421081543,0.9978814125061035,,,,,,,
4585672000.0,84.64,-0.12999999523162842,12041169408.0,1821.5120068560623,55.0,-0.0007521231891587377,229376.0,362.877564907074,6.579806144380029e-15,0.0,2.256601333618164,-0.02256600931286812,0.04808506369590759,-0.022566013038158417,3.725290298461914e-09,0.0,0.013985862024128437,0.30983537435531616,0.5237182439787219,-0.019323039799928665,0.34454017877578735,-0.005337181035429239,0.4489510953426361,2.2486813068389893,0.9972143173217773,,,,,,,
4585672000.0,77.84,-0.019999999552965164,12041169408.0,1840.5344901434235,56.0,0.0007567880093120039,233472.0,365.1030054092407,6.938893903907228e-15,0.0,2.2013580799102783,-0.022013593465089798,0.03990689665079117,-0.022013580426573753,-1.257285475730896e-08,0.0,0.03335065394639969,0.28057220578193665,0.42199209124149173,-0.007803368382155895,0.3003641963005066,0.02554728463292122,0.36904361844062805,2.225440502166748,0.9970300197601318,,,,,,,
4585672000.0,73.66,-0.07000000029802322,12041169408.0,1874.2715523777792,57.0,-0.001522684469819069,237568.0,367.28838777542114,6.418476861114186e-15,0.0,2.2517483234405518,-0.0225174892693758,0.05399627238512039,-0.022517481818795204,-7.450580596923828e-09,0.0,-0.0018173018470406532,0.3286572992801666,0.24294921772401845,0.010084565728902817,0.2888635993003845,0.008267262950539589,0.3777293860912323,2.18538236618042,0.9975903034210205,,,,,,,
4585672000.0,77.13,-0.05999999865889549,12041169408.0,1845.164711632821,58.0,0.0006125675281509757,241664.0,369.5082437992096,6.484396353201305e-15,0.0,2.3415944576263428,-0.023415951058268547,0.03804741054773331,-0.02341594360768795,-7.450580596923828e-09,0.0,0.010780161246657372,0.27567583322525024,0.34427455562678877,0.07879684120416641,0.22655697166919708,0.08957700431346893,0.34043771028518677,2.219856023788452,0.997767448425293,,,,,,,
4585672000.0,78.23,-0.029999999329447746,12041169408.0,1839.6462181329462,59.0,-0.001232558861374855,245760.0,371.73475885391235,5.9223459469848194e-15,0.0,2.384451389312744,-0.023844517767429352,0.05065911263227463,-0.023844514042139053,-3.725290298461914e-09,0.0,-0.03282153233885765,0.3166472017765045,0.36864798873959315,0.12230139970779419,0.19080451130867004,0.08947987854480743,0.3985106647014618,2.226515054702759,0.9974734783172607,,,,,,,
4585672000.0,76.48,-0.4300000071525574,12041169408.0,1828.8879397335318,60.0,-0.006037181243300438,249856.0,373.9743711948395,5.835609773185979e-15,0.0,2.3590073585510254,-0.023590069264173508,0.08835345506668091,-0.023590072989463806,3.725290298461914e-09,0.0,-0.11958062648773193,0.4030471742153168,0.38113954087813684,0.0772092416882515,0.21593180298805237,-0.04237138852477074,0.5123414993286133,2.239612340927124,0.9972946643829346,,,,,,,
4585672000.0,76.73,-0.5299999713897705,12041169408.0,1841.9185672809301,61.0,-0.0010882545029744506,253952.0,376.1981394290924,5.9396931817445875e-15,0.0,2.3715829849243164,-0.023715825751423836,0.056117650121450424,-0.023715829476714134,3.725290298461914e-09,0.0,-0.027669303119182587,0.33391159772872925,0.30617344511614564,0.12299168109893799,0.16850654780864716,0.095322385430336,0.40087226033210754,2.2237682342529297,0.9974336624145508,,,,,,,
4585672000.0,78.08,-0.20999999344348907,12041169408.0,1834.61152168302,62.0,-0.002186510246247053,258048.0,378.4307646751404,5.891120924417237e-15,0.0,2.3813321590423584,-0.02381332777440548,0.059521134942770004,-0.023813320323824883,-7.450580596923828e-09,0.0,-0.05611546337604523,0.34047263860702515,0.31951976171491103,0.08358016610145569,0.19607418775558472,0.027464697137475014,0.41273802518844604,2.2326252460479736,0.997128963470459,,,,,,,
4634220000.0,77.21,-0.23999999463558197,12041169408.0,1815.8981491121638,63.0,-0.002041468396782875,262144.0,380.6863977909088,5.728056917675417e-15,0.0,2.363386631011963,-0.023633858188986778,0.0466933436691761,-0.023633865639567375,7.450580596923828e-09,0.0,-0.04143083840608597,0.3028077781200409,0.41386047835363304,0.07430615276098251,0.22045747935771942,0.03287531062960625,0.3955182731151581,2.2556331157684326,0.9975378513336182,,,,,,,
,,,,,,,,,,,,,,,,,,,,,,,,,,0.005347448401153088,0.09717229753732681,0.08189789205789566,0.005347448401153088,0.09717229753732681,0.08189789205789566,
,,,,,,,,,,,,,,,,,,,,,,,,,,0.0028865959029644728,0.0825393795967102,0.0743480995297432,0.0028865959029644728,0.0825393795967102,0.0743480995297432,
,,,,,,,,,,,,,,,,,,,,,,,,,,0.0018089640652760863,0.07538053393363953,0.07089533656835556,0.0018089640652760863,0.07538053393363953,0.07089533656835556,
,,,,,,,,,,,,,,,,,,,,,,,,,,0.0018107598880305886,0.07398495078086853,0.0695028156042099,0.0018107598880305886,0.07398495078086853,0.0695028156042099,
,,,,,,,,,,,,,,,,,,,,,,,,,,0.0012328749289736152,0.07003405690193176,0.06702621281147003,0.0012328749289736152,0.07003405690193176,0.06702621281147003,
,,,,,,,,,,,,,,,,,,,,,,,,,,0.001236177864484489,0.07036729902029037,0.06692419946193695,0.001236177864484489,0.07036729902029037,0.06692419946193695,
,,,,,,,,,,,,,,,,,,,,,,,,,,,,,,,,-1.59
4636756000.0,74.22,-0.10000000149011612,11990521856.0,17.003366620966126,64.0,-0.00031572606530971825,266240.0,621.579868555069,5.044575868140555e-15,0.0,2.3217740058898926,-0.023217758163809776,0.035621024668216705,-0.023217739537358284,-1.862645149230957e-08,0.0,0.05228098854422569,0.2617737054824829,0.641616184308197,-0.09830932319164276,0.32038992643356323,-0.04602833092212677,0.43727219104766846,240.89347076416016,0.9971263408660889,,,,,,,
4636756000.0,78.42,-0.12999999523162842,12041169408.0,1782.5322322775467,65.0,-0.003172194119542837,270336.0,623.8777232170105,6.271025365656158e-15,0.0,2.258554458618164,-0.022585537284612656,0.05578918382525444,-0.022585544735193253,7.450580596923828e-09,0.0,0.025568466633558273,0.33309414982795715,0.6477519043052746,-0.19377335906028748,0.39392003417015076,-0.1682049036026001,0.561232328414917,2.2978546619415283,0.9967122077941895,,,,,,,
4636756000.0,73.03,-0.3400000035762787,12041169408.0,1845.4009673283128,66.0,-0.0035077594220638275,274432.0,626.0972950458527,5.249273238305818e-15,0.0,2.31462025642395,-0.02314619906246662,0.043800078332424164,-0.02314620278775692,3.725290298461914e-09,0.0,0.025364311411976814,0.2949203848838806,0.6819856485998239,-0.15295755863189697,0.42311927676200867,-0.1275932490825653,0.5229756832122803,2.219571828842163,0.997399091720581,,,,,,,
4636756000.0,71.0,-0.23000000417232513,12041169408.0,1899.2867542423623,67.0,-0.00032051384914666414,278528.0,628.2538940906525,5.2822329843493776e-15,0.0,2.2856738567352295,-0.02285674586892128,0.037678174674510956,-0.022856738418340683,-7.450580596923828e-09,0.0,0.06645601242780685,0.2663780748844147,0.7335807961914338,-0.1296805739402771,0.4217429757118225,-0.06322456896305084,0.5160784125328064,2.1565990447998047,0.9973626136779785,,,,,,,
4636756000.0,75.71,0.029999999329447746,12041169408.0,1869.1613216006845,68.0,-0.000161064846906811,282624.0,630.4452512264252,6.116634976294222e-15,0.0,2.2544684410095215,-0.02254466898739338,0.0460873618721962,-0.022544683888554573,1.4901161193847656e-08,0.0,0.061946138739585876,0.297252357006073,0.6947871899457291,-0.1333698034286499,0.44070759415626526,-0.07142366468906403,0.5380516052246094,2.191357135772705,0.9969475269317627,,,,,,,
4636756000.0,76.24,0.07999999821186066,12041169408.0,1801.6888795203151,69.0,0.0006477487622760236,286720.0,632.7186737060547,6.13918638148192e-15,0.0,2.199398994445801,-0.021993963047862053,0.030233783647418022,-0.021993989124894142,2.60770320892334e-08,0.0,0.07251764833927155,0.23499412834644318,0.49170991062310854,-0.0887613371014595,0.3176010847091675,-0.016243688762187958,0.3296106159687042,2.2734224796295166,0.9968254566192627,,,,,,,
4636756000.0,73.56,-0.07000000029802322,12041169408.0,1817.9463339848926,70.0,-0.0013018895406275988,290816.0,634.9717655181885,6.683889552938638e-15,0.0,2.2536747455596924,-0.02253674902021885,0.04267071932554245,-0.0225367471575737,-1.862645149230957e-09,0.0,0.03198840469121933,0.2904113829135895,0.7773822467952121,-0.12810195982456207,0.5082694292068481,-0.09611355513334274,0.6155080795288086,2.253091812133789,0.9970691204071045,,,,,,,
4636756000.0,70.69,-0.3100000023841858,12041169408.0,1791.729860980311,71.0,-0.004579021595418453,294912.0,637.257824420929,5.748873599387139e-15,0.0,2.1890554428100586,-0.0218905471265316,0.039861049503088,-0.021890554577112198,7.450580596923828e-09,0.0,0.023075811564922333,0.2814408540725708,0.7790914094803898,-0.19405892491340637,0.49205026030540466,-0.17098310589790344,0.5987986326217651,2.2860589027404785,0.997107982635498,,,,,,,
4636756000.0,70.29,-0.3499999940395355,12041169408.0,1901.1230526204547,72.0,-0.002791753737255931,299008.0,639.4123404026031,7.167877402736167e-15,0.0,2.161275863647461,-0.021612761542201042,0.049439191818237305,-0.021612757816910744,-3.725290298461914e-09,0.0,0.022104652598500252,0.31370973587036133,0.7445510454184303,-0.15147319436073303,0.49694570899009705,-0.12936852872371674,0.6206916570663452,2.1545159816741943,0.9968142509460449,,,,,,,
4636756000.0,74.87,0.07000000029802322,12041169408.0,1853.5060103464832,73.0,0.004126657731831074,303104.0,641.6222064495087,5.5979526569771565e-15,0.0,2.199265480041504,-0.021992620080709457,0.026020383462309837,-0.021992653608322144,3.3527612686157227e-08,0.0,0.08941379189491272,0.20989689230918884,0.6974418406069404,0.02995857410132885,0.3644424378871918,0.11937236785888672,0.3815940022468567,2.2098660469055176,0.9966955184936523,,,,,,,
4636756000.0,76.38,0.1899999976158142,12041169408.0,1827.9597169088092,74.0,-0.0008290361729450524,307200.0,643.8629560470581,5.646524914304507e-15,0.0,2.171832323074341,-0.02171831950545311,0.026748741045594215,-0.021718323230743408,3.725290298461914e-09,0.0,0.024224374443292618,0.23005127906799316,0.729932119447543,0.016061997041106224,0.34493961930274963,0.04028636962175369,0.44267821311950684,2.2407495975494385,0.9968295097351074,,,,,,,
4636756000.0,76.7,-0.009999999776482582,12041169408.0,1888.576770021045,75.0,-0.0003332603955641389,311296.0,646.0317850112915,5.995204332975845e-15,0.0,2.209200620651245,-0.022092003375291824,0.030486658215522766,-0.022092005237936974,1.862645149230957e-09,0.0,0.023669224232435226,0.24582074582576752,0.7694735895072735,0.012804071418941021,0.41793519258499146,0.03647329658269882,0.5119860768318176,2.1688289642333984,0.9970896244049072,,,,,,,
4636756000.0,77.78,-0.14000000059604645,12041169408.0,1865.3355565522907,76.0,-0.004344248212873936,315392.0,648.2276365756989,6.602357549567728e-15,0.0,2.1529667377471924,-0.0215296633541584,0.0669989287853241,-0.0215296670794487,3.725290298461914e-09,0.0,-0.02976302057504654,0.3648897409439087,0.7542172703765363,-0.1227661594748497,0.5426870584487915,-0.15252918004989624,0.7360138297080994,2.1958515644073486,0.9975876808166504,,,,,,,
4636756000.0,78.55,-0.30000001192092896,12041169408.0,1879.1898359338836,77.0,-0.0003353963838890195,319488.0,650.4072992801666,5.672545766444159e-15,0.0,2.232008457183838,-0.022320087999105453,0.0408465638756752,-0.022320084273815155,-4.6566128730773926e-09,0.0,0.018313199281692505,0.2852676510810852,0.7520970563287719,0.002302376553416252,0.49963900446891785,0.020615573972463608,0.5729433298110962,2.1796627044677734,0.9968235492706299,,,,,,,
4636756000.0,77.02,-0.23000000417232513,12041169408.0,1840.4451708675665,78.0,-0.002021337393671274,323584.0,652.6328477859497,6.196432256189155e-15,0.0,2.188607931137085,-0.021886074915528297,0.041477032005786896,-0.021886078640818596,3.725290298461914e-09,0.0,-0.013972011394798756,0.28771349787712097,0.7904290728691477,-0.03916345164179802,0.5145159363746643,-0.0531354658305645,0.6284847259521484,2.225548505783081,0.9978561401367188,,,,,,,
4636756000.0,75.66,-0.10999999940395355,12041169408.0,1865.6689841463626,79.0,0.0005075446679256856,327680.0,654.8283069133759,6.3074545586516706e-15,0.0,2.2145495414733887,-0.02214549481868744,0.027334971353411674,-0.02214549481868744,0.0,0.0,0.037237849086523056,0.2308599054813385,0.8131544686616973,0.02993914857506752,0.45494773983955383,0.06717699766159058,0.5340810418128967,2.1954591274261475,0.996833086013794,,,,,,,
4636756000.0,74.93,0.07000000029802322,12041169408.0,1881.830772833693,80.0,-0.000679569726344198,331776.0,657.0049107074738,6.1201044232461754e-15,0.0,2.288248062133789,-0.022882485762238503,0.0451568067073822,-0.022882480174303055,-5.587935447692871e-09,0.0,0.005428690928965807,0.30050987005233765,0.7414909156731332,0.040101319551467896,0.4991244971752167,0.045530013740062714,0.5910454392433167,2.1766037940979004,0.9969747066497803,,,,,,,
4636756000.0,72.65,-0.25,12041169408.0,1798.430159924369,81.0,-0.004256262443959713,335872.0,659.282452583313,6.277964259560065e-15,0.0,2.2725577354431152,-0.022725574672222137,0.08434098958969116,-0.022725576534867287,1.862645149230957e-09,0.0,-0.04149588569998741,0.40865734219551086,0.709407531529425,-0.018317503854632378,0.6060190200805664,-0.05981338396668434,0.758083701133728,2.2775418758392334,0.9974455833435059,,,,,,,
4636756000.0,76.26,-0.20999999344348907,12041169408.0,1868.962452932901,82.0,0.0001708578784018755,339968.0,661.474042892456,6.106226635438361e-15,0.0,2.2684223651885986,-0.022684218361973763,0.06860119849443436,-0.02268422394990921,5.587935447692871e-09,0.0,0.035421185195446014,0.36875593662261963,0.6983222966529274,-0.07328405976295471,0.638404130935669,-0.0378628708422184,0.671378493309021,2.1915903091430664,0.9972121715545654,,,,,,,
4636756000.0,78.78,-0.03999999910593033,12041169408.0,1835.2343519175195,83.0,0.0005144225433468819,344064.0,663.7059104442596,6.600622826091751e-15,0.0,2.248335361480713,-0.022483348846435547,0.05469807982444763,-0.022483352571725845,2.7939677238464355e-09,0.0,0.03252215310931206,0.3291882872581482,0.7595116478801807,-0.07060940563678741,0.626616358757019,-0.038087256252765656,0.6712701320648193,2.231867551803589,0.9967889785766602,,,,,,,
4636756000.0,78.72,0.019999999552965164,12041169408.0,1827.9118718460168,84.0,0.0008608742500655353,348160.0,665.9467186927795,6.0958182945825e-15,0.0,2.2093048095703125,-0.022093018516898155,0.05025326460599899,-0.022093048319220543,2.9802322387695312e-08,0.0,0.06741379201412201,0.30981501936912537,0.7518406044981221,-0.10101340711116791,0.6327932476997375,-0.033599622547626495,0.6219237446784973,2.2408082485198975,0.9967970848083496,,,,,,,
4636756000.0,73.69,0.11999999731779099,12041169408.0,1831.0674164081518,85.0,0.0010378165170550346,352256.0,668.1836652755737,5.837344496661956e-15,0.0,2.2719478607177734,-0.022719481959939003,0.029849618673324585,-0.022719478234648705,-3.725290298461914e-09,0.0,0.05209331959486008,0.2387455552816391,0.8047456143926643,-0.020222723484039307,0.5643256306648254,0.03187059983611107,0.5402998924255371,2.2369465827941895,0.9980640411376953,,,,,,,
4636756000.0,74.25,-0.029999999329447746,12041169408.0,1893.2894263168132,86.0,-0.0013894380535930395,356352.0,670.3470957279205,6.600622826091751e-15,0.0,2.302079916000366,-0.023020798340439796,0.06704223155975342,-0.023020798340439796,0.0,0.0,-0.010124683380126953,0.3660801649093628,0.6192839678777705,0.06025518476963043,0.5536813139915466,0.05013050511479378,0.5933017730712891,2.1634304523468018,0.9969196319580078,,,,,,,
4636756000.0,78.54,-0.009999999776482582,12041169408.0,1838.255717869469,87.0,0.0015687597915530205,360448.0,672.5752949714661,6.246739236992482e-15,0.0,2.2998619079589844,-0.022998610511422157,0.04308929294347763,-0.022998617962002754,7.450580596923828e-09,0.0,0.01874030940234661,0.29299888014793396,0.7279541846648306,0.13066019117832184,0.47360625863075256,0.1494005024433136,0.5617523789405823,2.2281992435455322,0.9971141815185547,,,,,,,
4636756000.0,79.4,0.1899999976158142,12041169408.0,1838.601768452992,88.0,0.0012243916280567646,364544.0,674.803074836731,6.63358257213531e-15,0.0,2.266129970550537,-0.022661298513412476,0.04170176386833191,-0.022661298513412476,-4.656612873077393e-10,0.0,-0.005660992115736008,0.2887764573097229,0.7235925931887373,0.07406692951917648,0.4785950481891632,0.06840594112873077,0.5492713451385498,2.2277798652648926,0.9973654747009277,,,,,,,
4636756000.0,78.58,0.10999999940395355,12041169408.0,1838.1475423148959,89.0,0.0007020835764706135,368640.0,677.031405210495,6.498274141009119e-15,0.0,2.2623157501220703,-0.022623153403401375,0.0688464492559433,-0.022623157128691673,3.725290298461914e-09,0.0,0.008353916928172112,0.37102118134498596,0.6298881976437443,0.03307047486305237,0.5439842939376831,0.04142439365386963,0.6098629236221313,2.228330373764038,0.9970934391021729,,,,,,,
4636756000.0,76.92,0.18000000715255737,12041169408.0,1824.2258166658207,90.0,0.001585543854162097,372736.0,679.2767412662506,6.696032617270475e-15,0.0,2.2660176753997803,-0.022660179063677788,0.035059332847595215,-0.02266017533838749,-3.725290298461914e-09,0.0,-0.0006124777719378471,0.26483091711997986,0.7710788148590049,0.05803658813238144,0.48022693395614624,0.05742412060499191,0.553510308265686,2.2453360557556152,0.9970526695251465,,,,,,,
4636756000.0,77.33,-0.019999999552965164,12041169408.0,1859.348539485753,91.0,-0.0015906362095847726,376832.0,681.4796633720398,6.647460359943125e-15,0.0,2.282349109649658,-0.02282349206507206,0.055078692734241486,-0.02282349020242691,-1.862645149230957e-09,0.0,-0.0004432573914527893,0.3319399058818817,0.6932811325901158,0.05184612423181534,0.46470150351524353,0.05140286684036255,0.5993620157241821,2.2029221057891846,0.9967758655548096,,,,,,,
4636756000.0,74.63,0.09000000357627869,12041169408.0,1877.580921184498,92.0,0.003724652575328946,380928.0,683.6611938476562,6.415007414162233e-15,0.0,2.2901859283447266,-0.022901855409145355,0.03388601541519165,-0.022901859134435654,3.026798367500305e-09,0.0,0.03890238702297211,0.2574389576911926,0.7200710653230735,0.1876700520515442,0.4580255150794983,0.2265724390745163,0.4865756630897522,2.181530475616455,0.9969682693481445,,,,,,,
4636756000.0,76.32,0.4000000059604645,12041169408.0,1817.986925421016,93.0,0.003024755045771599,385024.0,685.9142353534698,6.789707684973223e-15,0.0,2.26552677154541,-0.022655267268419266,0.03901948034763336,-0.022655267268419266,0.0,0.0,0.003670521080493927,0.27936452627182007,0.6888741338061033,0.15809789299964905,0.37553325295448303,0.16176842153072357,0.5008448362350464,2.2530415058135986,0.9971187114715576,,,,,,,
4636756000.0,77.61,0.05000000074505806,12041169408.0,1826.7140337151457,94.0,-0.0016060657799243927,389120.0,688.1565129756927,6.8296063249206895e-15,0.0,2.2326622009277344,-0.02232661470770836,0.04294709488749504,-0.022326622158288956,7.450580596923828e-09,0.0,-0.033417709171772,0.2912012040615082,0.6896126965855842,-0.01669589802622795,0.35228362679481506,-0.050113607197999954,0.5226864218711853,2.2422776222229004,0.9968931674957275,,,,,,,
4636756000.0,76.94,0.029999999329447746,12041169408.0,1826.8490350856578,95.0,0.0010752188973128796,393216.0,690.3986248970032,6.867770241392179e-15,0.0,2.2283859252929688,-0.02228386700153351,0.030588656663894653,-0.02228385955095291,-7.450580596923828e-09,0.0,-0.016661815345287323,0.24680878221988678,0.6979806077925047,0.0717705711722374,0.38856425881385803,0.05510876327753067,0.449100136756897,2.242111921310425,0.9969253540039062,,,,,,,
,,,,,,,,,,,,,,,,,,,,,,,,,,0.0014193638926371932,0.05255803465843201,0.04723870009183884,0.0014193638926371932,0.05255803465843201,0.04723870009183884,
,,,,,,,,,,,,,,,,,,,,,,,,,,0.0014676477294415236,0.046413566917181015,0.04449255391955376,0.0014676477294415236,0.046413566917181015,0.04449255391955376,
,,,,,,,,,,,,,,,,,,,,,,,,,,0.0010418095625936985,0.042896490544080734,0.0409112386405468,0.0010418095625936985,0.042896490544080734,0.0409112386405468,
,,,,,,,,,,,,,,,,,,,,,,,,,,0.0018446368630975485,0.04291853308677673,0.04236278310418129,0.0018446368630975485,0.04291853308677673,0.04236278310418129,
,,,,,,,,,,,,,,,,,,,,,,,,,,0.0009709883597679436,0.04072778299450874,0.03977769985795021,0.0009709883597679436,0.04072778299450874,0.03977769985795021,
,,,,,,,,,,,,,,,,,,,,,,,,,,0.0009187598479911685,0.040890149772167206,0.03995079919695854,0.0009187598479911685,0.040890149772167206,0.03995079919695854,
,,,,,,,,,,,,,,,,,,,,,,,,,,,,,,,,-1.84
4636848000.0,79.06,0.1599999964237213,11990521856.0,17.054144512832536,96.0,0.00251790601760149,397312.0,930.5748469829559,6.045511313779173e-15,0.0,2.239203453063965,-0.02239202708005905,0.018962841480970383,-0.02239203453063965,7.450580596923828e-09,0.0,0.06548923254013062,0.1834259033203125,0.8504555093563959,0.07856322824954987,0.48311513662338257,0.14405247569084167,0.47432437539100647,240.17622208595276,0.997032642364502,,,,,,,
4636848000.0,82.01,0.25999999046325684,12041169408.0,1892.773789003914,97.0,0.003250562120229006,401408.0,932.7388668060303,6.680420105986684e-15,0.0,2.2401392459869385,-0.022401396185159683,0.025746073573827744,-0.022401392459869385,-3.725290298461914e-09,0.0,0.04999712109565735,0.22136938571929932,0.7826708985252564,0.10485658794641495,0.4261940121650696,0.1548537164926529,0.4748523533344269,2.164019823074341,0.9975407123565674,,,,,,,
4636848000.0,77.27,0.30000001192092896,12041169408.0,1783.8544970037142,98.0,0.0025377669371664524,405504.0,935.0350182056427,6.423681031542117e-15,0.0,2.2236013412475586,-0.022235997021198273,0.021690428256988525,-0.022236013785004616,1.6763806343078613e-08,0.0,0.053794726729393005,0.20123836398124695,0.8209762636484417,0.06156771630048752,0.4310290217399597,0.11536243557929993,0.47561490535736084,2.2961513996124268,0.99690842628479,,,,,,,
4636848000.0,73.52,0.25999999046325684,12041169408.0,1859.9699570341504,99.0,0.0016380713786929846,409600.0,937.2372043132782,6.859096624012295e-15,0.0,2.216547966003418,-0.022165484726428986,0.02212681993842125,-0.022165479138493538,-5.587935447692871e-09,0.0,0.03564516454935074,0.20734888315200806,0.7328071937582805,0.02607540786266327,0.419678270816803,0.061720576137304306,0.40113380551338196,2.202186107635498,0.9969849586486816,,,,,,,
4636848000.0,74.45,0.28999999165534973,12041169408.0,1796.1201193226673,100.0,0.002922748913988471,413696.0,939.5176753997803,6.17735029795341e-15,0.0,2.226675033569336,-0.022266775369644165,0.021115977317094803,-0.022266749292612076,-2.60770320892334e-08,0.0,0.048962295055389404,0.19961056113243103,0.7950760452083752,0.0570378340780735,0.417260080575943,0.10600012540817261,0.4409478008747101,2.280471086502075,0.9975359439849854,,,,,,,
4636848000.0,76.44,0.1899999976158142,12041169408.0,1850.851197002417,101.0,0.0023831473663449287,417792.0,941.730711221695,6.501743587961073e-15,0.0,2.2113518714904785,-0.022113513201475143,0.03252405300736427,-0.02211351878941059,5.587935447692871e-09,0.0,0.006518823094666004,0.25499311089515686,0.7539979064808264,0.04734107851982117,0.45195072889328003,0.0538598969578743,0.5141135454177856,2.213035821914673,0.9970839023590088,,,,,,,
4636848000.0,80.18,0.05999999865889549,12041169408.0,1874.6556395046855,102.0,-0.00018389016622677445,421888.0,943.9156458377838,6.782768791069316e-15,0.0,2.2019388675689697,-0.02201937325298786,0.029898397624492645,-0.022019388154149055,1.4901161193847656e-08,0.0,-0.027034766972064972,0.24306447803974152,0.8461114365176244,0.044346343725919724,0.5158020853996277,0.01731157675385475,0.6196098327636719,2.184934616088867,0.9966912269592285,,,,,,,
4636848000.0,84.94,0.20999999344348907,12041169408.0,1867.5246602639143,103.0,0.004058912396430969,425984.0,946.1089234352112,7.098488463697095e-15,0.0,2.1944003105163574,-0.021944008767604828,0.0308209341019392,-0.02194400317966938,-5.587935447692871e-09,0.0,0.024746118113398552,0.24707166850566864,0.7685154416577966,0.0019277427345514297,0.5052729845046997,0.026673858985304832,0.5135253667831421,2.193277597427368,0.9971528053283691,,,,,,,
4636848000.0,77.03,0.38999998569488525,12041169408.0,1854.3616833716999,104.0,0.0038886265829205513,430080.0,948.3177697658539,6.373374050738789e-15,0.0,2.2596657276153564,-0.02259666472673416,0.012136619538068771,-0.022596657276153564,-7.450580596923828e-09,0.0,0.050485871732234955,0.14741003513336182,0.8780866088462134,0.1428530514240265,0.422619104385376,0.19333893060684204,0.4221836030483246,2.2088463306427,0.9968533515930176,,,,,,,
4636848000.0,73.57,0.3100000023841858,12041169408.0,1822.120755131621,105.0,0.0020437182392925024,434176.0,950.5656998157501,6.033368249447335e-15,0.0,2.302666187286377,-0.023026658222079277,0.030606139451265335,-0.023026661947369576,3.725290298461914e-09,0.0,0.009490582160651684,0.2472592443227768,0.7085538669443749,0.08048494905233383,0.4117312431335449,0.08997553586959839,0.458008348941803,2.2479300498962402,0.9971115589141846,,,,,,,
4636848000.0,77.24,0.27000001072883606,12041169408.0,1868.7756200156314,106.0,0.004099275916814804,438272.0,952.7575092315674,5.693362448155881e-15,0.0,2.3491082191467285,-0.02349107712507248,0.03017595037817955,-0.023491080850362778,3.725290298461914e-09,0.0,0.021681880578398705,0.2447374314069748,0.7599364109643025,0.13861329853534698,0.40273311734199524,0.16029515862464905,0.4995020627975464,2.1918094158172607,0.996924638748169,,,,,,,
4636848000.0,78.78,0.4000000059604645,12041169408.0,1862.9850978492118,107.0,0.0028037852607667446,442368.0,954.9561312198639,6.494804694057166e-15,0.0,2.3271021842956543,-0.023271020501852036,0.04091668128967285,-0.023271020501852036,9.313225746154785e-10,0.0,0.02598813734948635,0.2849171757698059,0.6765471222815522,0.10277886688709259,0.42026105523109436,0.1287670135498047,0.5009716153144836,2.198621988296509,0.9970722198486328,,,,,,,
4636848000.0,76.23,0.3100000023841858,12041169408.0,1833.0208941433043,108.0,0.0024354076012969017,446464.0,957.1906938552856,6.069797442442848e-15,0.0,2.322700023651123,-0.02322700433433056,0.0505504310131073,-0.02322700060904026,-3.725290298461914e-09,0.0,0.007878754287958145,0.3179048001766205,0.72111756172981,0.048755496740341187,0.46897682547569275,0.05663425847887993,0.6019861698150635,2.234562635421753,0.9971020221710205,,,,,,,
4636848000.0,76.37,0.11999999731779099,12041169408.0,1843.695616628587,109.0,0.0005629443912766874,450560.0,959.4123187065125,6.449701883681769e-15,0.0,2.3706421852111816,-0.02370641753077507,0.046903036534786224,-0.02370642125606537,3.725290298461914e-09,0.0,-0.026286251842975616,0.305184930562973,0.7848801778380065,0.12986081838607788,0.5116876363754272,0.10357455909252167,0.6579954028129578,2.2216248512268066,0.9973349571228027,,,,,,,
4636848000.0,76.15,0.05000000074505806,12041169408.0,1866.9347028638865,110.0,-0.001128787873312831,454656.0,961.6062893867493,7.082875952413303e-15,0.0,2.291381359100342,-0.022913817316293716,0.06843890249729156,-0.022913813591003418,-3.725290298461914e-09,0.0,-0.03547940403223038,0.3683098554611206,0.6148134308385864,0.03927437216043472,0.4266309142112732,0.0037949709221720695,0.5934413075447083,2.1939706802368164,0.9970729351043701,,,,,,,
4636848000.0,72.79,0.019999999552965164,12041169408.0,1831.6745624737987,111.0,0.002075619762763381,458752.0,963.8424944877625,6.4618449480136064e-15,0.0,2.356877088546753,-0.023568766191601753,0.03839237242937088,-0.02356876991689205,3.725290298461914e-09,0.0,0.004977071192115545,0.2770897150039673,0.7098467005460463,0.1814548373222351,0.44884294271469116,0.1864318996667862,0.5144068002700806,2.2362051010131836,0.9968235492706299,,,,,,,
4636848000.0,75.31,0.2199999988079071,12041169408.0,1843.1332714587995,112.0,0.000946181477047503,462848.0,966.0647971630096,7.086345399365257e-15,0.0,2.3543200492858887,-0.023543206974864006,0.05613704025745392,-0.02354319952428341,-7.450580596923828e-09,0.0,-0.050653450191020966,0.33126288652420044,0.6292709417509642,0.19975396990776062,0.4316111207008362,0.14910052716732025,0.5440570712089539,2.2223026752471924,0.9980604648590088,,,,,,,
4636848000.0,77.99,0.1599999964237213,12041169408.0,1803.7240554156965,113.0,0.0032212466467171907,466944.0,968.3356544971466,7.757683384568281e-15,0.0,2.2882916927337646,-0.022882919758558273,0.03197335824370384,-0.022882916033267975,-2.7939677238464355e-09,0.0,0.007509824354201555,0.2527962028980255,0.6732158883219364,0.1020117998123169,0.3748476505279541,0.10952162742614746,0.4422217607498169,2.270857334136963,0.9968245029449463,,,,,,,
4636848000.0,80.73,0.3100000023841858,12041169408.0,1876.4777985755045,114.0,0.0039912499487400055,471040.0,970.5184674263,7.572067972638763e-15,0.0,2.252190113067627,-0.02252189628779888,0.021069329231977463,-0.02252190001308918,3.725290298461914e-09,0.0,0.0022582935635000467,0.20528966188430786,0.8438010013952112,0.1797608733177185,0.5317986011505127,0.18201914429664612,0.5194310545921326,2.1828129291534424,0.9968662261962891,,,,,,,
4636848000.0,76.7,0.25,12041169408.0,1818.3586810723825,115.0,0.0009531915420666337,475136.0,972.7710483074188,7.211245489635587e-15,0.0,2.3459439277648926,-0.023459456861019135,0.052009664475917816,-0.023459438234567642,-1.862645149230957e-08,0.0,-0.05198074132204056,0.3183426856994629,0.7038633317075375,0.19498875737190247,0.5022324919700623,0.1430080235004425,0.5849904417991638,2.2525808811187744,0.9970402717590332,,,,,,,
4636848000.0,75.92,0.09000000357627869,12041169408.0,1875.6288327178538,116.0,-0.0022802809253335,479232.0,974.9548492431641,8.744741042399085e-15,0.0,2.3098433017730713,-0.02309843897819519,0.13265925645828247,-0.023098433390259743,-4.6566128730773926e-09,0.0,-0.10857895016670227,0.5035781860351562,0.44254573978158995,0.13273203372955322,0.4253343343734741,0.02415309101343155,0.6744694709777832,2.1838009357452393,0.9967801570892334,,,,,,,
4636848000.0,83.74,-0.15000000596046448,12041169408.0,1803.0563805749946,117.0,-0.0005714865401387215,483328.0,977.2265474796295,8.283304597789254e-15,0.0,2.230105400085449,-0.022301048040390015,0.07868222892284393,-0.022301053628325462,5.587935447692871e-09,0.0,-0.03855576738715172,0.39486199617385864,0.704694565305397,-0.03208627179265022,0.6307280659675598,-0.07064204663038254,0.7266237139701843,2.271698236465454,0.9970006942749023,,,,,,,
4636848000.0,80.67,-0.009999999776482582,12041169408.0,1845.035113820095,118.0,0.0007635978981852531,487424.0,979.4465594291687,7.641456911677835e-15,0.0,2.309220314025879,-0.023092206567525864,0.06234420835971832,-0.023092202842235565,-3.725290298461914e-09,0.0,-0.012818805873394012,0.35292279720306396,0.5660592473444843,0.07453687489032745,0.40525782108306885,0.06171807646751404,0.5357528924942017,2.2200119495391846,0.9970784187316895,,,,,,,
4636848000.0,78.18,0.4300000071525574,12041169408.0,1883.2105876264668,119.0,0.008417140692472458,491520.0,981.621568441391,7.049916206369744e-15,0.0,2.3721437454223633,-0.02372143790125847,0.023954488337039948,-0.02372143603861332,-9.313225746154785e-10,0.0,0.07812613248825073,0.2044883668422699,0.7551440936434524,0.08359398692846298,0.449680358171463,0.1617201268672943,0.4132504463195801,2.17500901222229,0.9968178272247314,,,,,,,
4636848000.0,81.59,0.6499999761581421,12041169408.0,1817.5651322759495,120.0,0.004600518383085728,495616.0,983.8751327991486,7.086345399365257e-15,0.0,2.3230342864990234,-0.023230336606502533,0.04598812013864517,-0.02323034219443798,6.51925802230835e-09,0.0,0.026916950941085815,0.30211588740348816,0.6385287584288956,0.006687726825475693,0.42778658866882324,0.03360467404127121,0.5025007128715515,2.2535643577575684,0.997873067855835,,,,,,,
4636848000.0,80.15,0.36000001430511475,12041169408.0,1876.0773941326815,121.0,-0.0005759297637268901,499712.0,986.0584115982056,7.674416657721395e-15,0.0,2.3693974018096924,-0.023693973198533058,0.13864047825336456,-0.023693973198533058,0.0,0.0,-0.031077571213245392,0.5257210731506348,0.43153420514439733,0.02612023800611496,0.46056491136550903,-0.004957336932420731,0.6972734928131104,2.183278799057007,0.9974327087402344,,,,,,,
4636848000.0,75.83,0.23000000417232513,12041169408.0,1876.2660998071954,122.0,0.004810019861906767,503808.0,988.2414708137512,6.862566070964249e-15,0.0,2.406862258911133,-0.024068618193268776,0.03810599446296692,-0.024068621918559074,3.725290298461914e-09,0.0,0.04200715199112892,0.272883802652359,0.6657184306744814,0.044103510677814484,0.3897187411785126,0.0861106589436531,0.47197777032852173,2.1830592155456543,0.9970951080322266,,,,,,,
4636848000.0,77.25,0.1899999976158142,12041169408.0,1781.207678784639,123.0,0.002699874574318528,507904.0,990.5410342216492,6.534703334004632e-15,0.0,2.451076030731201,-0.024510763585567474,0.05713649094104767,-0.024510759860277176,-3.725290298461914e-09,0.0,0.015782838687300682,0.3377154469490051,0.48340570782193426,0.05050670728087425,0.3594912588596344,0.06628954410552979,0.4698682725429535,2.299563407897949,0.9970583915710449,,,,,,,
4636848000.0,74.17,0.36000001430511475,12041169408.0,1877.610265251082,124.0,0.0040615820325911045,512000.0,992.7225306034088,7.230327447871332e-15,0.0,2.3180861473083496,-0.023180868476629257,0.0166645385324955,-0.02318086102604866,-7.450580596923828e-09,0.0,0.05600215494632721,0.17378206551074982,0.6371661589937245,0.0015357853844761848,0.3153192400932312,0.05753794312477112,0.288503497838974,2.1814963817596436,0.9976513385772705,,,,,,,
4636848000.0,73.66,0.3700000047683716,12041169408.0,1821.6721236659703,125.0,0.003879563882946968,516096.0,994.9710142612457,7.062059270701582e-15,0.0,2.375633716583252,-0.023756347596645355,0.01793910562992096,-0.02375633642077446,-1.1175870895385742e-08,0.0,0.0397954061627388,0.1852104514837265,0.7988793848161303,0.08385537564754486,0.3734877109527588,0.12365078926086426,0.4129877984523773,2.248483657836914,0.9969379901885986,,,,,,,
4636848000.0,75.27,0.3700000047683716,12041169408.0,1836.2109961445688,126.0,0.0038911665324121714,520192.0,997.201694726944,6.054184931159057e-15,0.0,2.3750243186950684,-0.023750223219394684,0.02120472863316536,-0.023750241845846176,1.862645149230957e-08,0.0,0.04112054407596588,0.20181304216384888,0.7252155945974778,0.08992710709571838,0.32686808705329895,0.13104765117168427,0.3849932849407196,2.230680465698242,0.9971954822540283,,,,,,,
4636848000.0,79.18,0.5299999713897705,12041169408.0,1804.14759509915,127.0,0.0074128820560872555,524288.0,999.4720189571381,6.983996714282625e-15,0.0,2.372077465057373,-0.02372077852487564,0.015109708532691002,-0.023720774799585342,-3.725290298461914e-09,0.0,0.06494206190109253,0.161270871758461,0.8002682079867526,0.1324032098054886,0.33719146251678467,0.19734525680541992,0.3608546555042267,2.270324230194092,0.997549295425415,,,,,,,
,,,,,,,,,,,,,,,,,,,,,,,,,,0.0033131116069853306,0.047719310969114304,0.04006549343466759,0.0033131116069853306,0.047719310969114304,0.04006549343466759,
,,,,,,,,,,,,,,,,,,,,,,,,,,0.0018622481729835272,0.038999710232019424,0.037408217787742615,0.0018622481729835272,0.038999710232019424,0.037408217787742615,
,,,,,,,,,,,,,,,,,,,,,,,,,,0.0018136579310521483,0.036415595561265945,0.03482901677489281,0.0018136579310521483,0.036415595561265945,0.03482901677489281,
,,,,,,,,,,,,,,,,,,,,,,,,,,0.002620795974507928,0.03687409311532974,0.03668085113167763,0.002620795974507928,0.03687409311532974,0.03668085113167763,
,,,,,,,,,,,,,,,,,,,,,,,,,,0.002162780612707138,0.034264542162418365,0.03324858844280243,0.002162780612707138,0.034264542162418365,0.03324858844280243,
,,,,,,,,,,,,,,,,,,,,,,,,,,0.002161731943488121,0.03424485772848129,0.03365723416209221,0.002161731943488121,0.03424485772848129,0.03365723416209221,
,,,,,,,,,,,,,,,,,,,,,,,,,,,,,,,,-1.49
4637100000.0,80.26,0.5799999833106995,11990521856.0,17.07728672527376,128.0,0.004109395667910576,528384.0,1239.3227672576904,6.826136877968736e-15,0.0,2.348175525665283,-0.02348175086081028,0.005116614978760481,-0.02348175458610058,3.725290298461914e-09,0.0,0.030089901760220528,0.09659247100353241,0.9082912080241539,0.09712793678045273,0.29798898100852966,0.1272178441286087,0.31896114349365234,239.85074830055237,0.9968340396881104,,,,,,,
4637100000.0,75.54,0.4099999964237213,12041169408.0,1855.5205108401349,129.0,0.004514297470450401,532480.0,1241.5302340984344,6.1287780406260595e-15,0.0,2.395582437515259,-0.0239558182656765,0.010219765827059746,-0.023955823853611946,5.587935447692871e-09,0.0,0.029848862439393997,0.13983330130577087,0.8488334727131501,0.11597305536270142,0.3433682322502136,0.1458219289779663,0.35965225100517273,2.2074668407440186,0.9966845512390137,,,,,,,
4637100000.0,78.96,0.46000000834465027,12041169408.0,1791.09904404834,130.0,0.004723791033029556,536576.0,1243.8170981407166,6.860831347488272e-15,0.0,2.375392436981201,-0.023753931745886803,0.010652473196387291,-0.023753924295306206,-7.450580596923828e-09,0.0,0.03677549958229065,0.14127059280872345,0.8529757504474536,0.12085714936256409,0.361562579870224,0.15763264894485474,0.3684319853782654,2.2868640422821045,0.9966311454772949,,,,,,,
4637100000.0,77.29,0.5799999833106995,12041169408.0,1884.4750089068996,131.0,0.007694900035858154,540672.0,1245.9906477928162,6.342149028171207e-15,0.0,2.3731324672698975,-0.02373131737112999,0.014392458833754063,-0.023731324821710587,7.450580596923828e-09,0.0,0.047815486788749695,0.1628037691116333,0.8451945882842629,0.17362993955612183,0.3989253044128418,0.22144541144371033,0.4137817919254303,2.1735496520996094,0.9968514442443848,,,,,,,
4637100000.0,73.87,0.5199999809265137,12041169408.0,1809.7975880839829,132.0,0.0031661097891628742,544768.0,1248.2538843154907,7.363901155521546e-15,0.0,2.3387770652770996,-0.02338777296245098,0.017596151679754257,-0.023387769237160683,-3.725290298461914e-09,0.0,0.01560197677463293,0.18696901202201843,0.7785903948799131,0.11171889305114746,0.3378902077674866,0.12732087075710297,0.3973483443260193,2.2632365226745605,0.9975800514221191,,,,,,,
4637100000.0,71.01,0.36000001430511475,12041169408.0,1834.044717937681,133.0,0.005556162912398577,548864.0,1250.4871995449066,7.17134684968812e-15,0.0,2.3915653228759766,-0.023915674537420273,0.008091581985354424,-0.023915652185678482,-2.2351741790771484e-08,0.0,0.033518873155117035,0.1227327436208725,0.8854926848230399,0.1336916983127594,0.3469613790512085,0.16721057891845703,0.36269688606262207,2.2333152294158936,0.9978926181793213,,,,,,,
4637100000.0,73.38,0.3499999940395355,12041169408.0,1821.8697493192062,134.0,0.0031825697515159845,552960.0,1252.735439300537,6.241535066564552e-15,0.0,2.350116014480591,-0.02350115217268467,0.030245620757341385,-0.023501159623265266,7.450580596923828e-09,0.0,-0.0017166230827569962,0.24597370624542236,0.6979404196269815,0.13807609677314758,0.3503013849258423,0.13635948300361633,0.44755086302757263,2.248239755630493,0.9967446327209473,,,,,,,
4637100000.0,72.78,0.47999998927116394,12041169408.0,1854.8001290812526,135.0,0.00618013646453619,557056.0,1254.9437634944916,7.544312397023134e-15,0.0,2.308321475982666,-0.023083241656422615,0.012458361685276031,-0.023083213716745377,-2.7939677238464355e-08,0.0,0.046261511743068695,0.15093758702278137,0.8406861137055069,0.09035985916852951,0.3822020888328552,0.1366213709115982,0.3781556785106659,2.2083241939544678,0.996727466583252,,,,,,,
4637100000.0,69.93,0.5899999737739563,12041169408.0,1888.926035558259,136.0,0.007594269700348377,561152.0,1257.112191438675,7.311859451242242e-15,0.0,2.3689918518066406,-0.02368992567062378,0.007800081744790077,-0.023689918220043182,-8.381903171539307e-09,0.0,0.03248952329158783,0.12061569839715958,0.9152795747310923,0.19859756529331207,0.4014362692832947,0.2310871034860611,0.4143904745578766,2.1684279441833496,0.9973070621490479,,,,,,,
4637100000.0,71.65,0.5,12041169408.0,1831.7679151571526,137.0,0.004406558349728584,565248.0,1259.3482825756073,7.806255641895632e-15,0.0,2.3448352813720703,-0.02344834804534912,0.020253363996744156,-0.02344835177063942,3.725290298461914e-09,0.0,0.014842486009001732,0.2007393091917038,0.7254682272269093,0.07928626239299774,0.33857250213623047,0.09412874281406403,0.38312116265296936,2.236091136932373,0.9969191551208496,,,,,,,
4637100000.0,71.51,0.5299999713897705,12041169408.0,1830.9710128863826,138.0,0.006624876521527767,569344.0,1261.5853469371796,7.289308046054543e-15,0.0,2.3204092979431152,-0.02320409193634987,0.011251922696828842,-0.02320409193634987,-9.313225746154785e-10,0.0,0.03941372409462929,0.14476020634174347,0.8838373536473012,0.1444878876209259,0.419196218252182,0.1839016228914261,0.4247329533100128,2.2370643615722656,0.9966404438018799,,,,,,,
4637100000.0,69.26,0.550000011920929,12041169408.0,1801.9940804358384,139.0,0.006238509900867939,573440.0,1263.8583843708038,7.112366251504909e-15,0.0,2.354100465774536,-0.023541003465652466,0.0063264332711696625,-0.023541003465652466,9.313225746154785e-10,0.0,0.02122373878955841,0.11047804355621338,0.9271632178821706,0.18058814108371735,0.4066772162914276,0.20181187987327576,0.4093554615974426,2.2730374336242676,0.997058629989624,,,,,,,
4637100000.0,70.26,0.47999998927116394,12041169408.0,1839.7687553698258,140.0,0.006251968443393707,577536.0,1266.0847511291504,8.316264343832813e-15,0.0,2.3053297996520996,-0.02305329404771328,0.02147115394473076,-0.023053297773003578,3.725290298461914e-09,0.0,0.0008414145559072495,0.20724885165691376,0.8078812064630014,0.2054191529750824,0.4274412989616394,0.2062605768442154,0.4728323519229889,2.2263667583465576,0.9971880912780762,,,,,,,
4637100000.0,70.76,0.49000000953674316,12041169408.0,1872.2853218905823,141.0,0.005458598490804434,581632.0,1268.272451877594,7.762887554996212e-15,0.0,2.30448579788208,-0.02304486185312271,0.01903841271996498,-0.023044858127832413,-3.725290298461914e-09,0.0,-0.005642496980726719,0.19507506489753723,0.854726607545709,0.23036861419677734,0.4754965603351593,0.224726140499115,0.5118099451065063,2.1877007484436035,0.9966452121734619,,,,,,,
4637100000.0,71.85,0.5099999904632568,12041169408.0,1849.8081303670283,142.0,0.007291658781468868,585728.0,1270.4867355823517,8.212180935274205e-15,0.0,2.2633109092712402,-0.022633112967014313,0.01581064984202385,-0.022633109241724014,-3.725290298461914e-09,0.0,0.0037481053732335567,0.17780598998069763,0.8943084552054543,0.24061967432498932,0.5013043880462646,0.244367778301239,0.546923041343689,2.2142837047576904,1.0001001358032227,,,,,,,
4637100000.0,69.78,0.5799999833106995,12041169408.0,1842.830581866924,143.0,0.004668474197387695,589824.0,1272.7094032764435,6.859096624012295e-15,0.0,2.3185644149780273,-0.023185648024082184,0.014334681443870068,-0.023185644298791885,-3.725290298461914e-09,0.0,-0.004469951614737511,0.1692819446325302,0.8805888448097091,0.18828625977039337,0.43751877546310425,0.18381629884243011,0.4898782968521118,2.222667694091797,0.9972560405731201,,,,,,,
4637100000.0,73.06,0.41999998688697815,12041169408.0,1866.3177470353241,144.0,0.004271682817488909,593920.0,1274.904099225998,8.571268694801404e-15,0.0,2.344672679901123,-0.02344673126935959,0.03757074102759361,-0.02344672568142414,-4.6566128730773926e-09,0.0,-0.040029533207416534,0.271214097738266,0.8040329147065213,0.30181390047073364,0.5276089310646057,0.2617843449115753,0.6126616597175598,2.1946959495544434,0.9968371391296387,,,,,,,
4637100000.0,73.75,0.3700000047683716,12041169408.0,1790.474455790108,145.0,0.0057084765285253525,598016.0,1277.1917610168457,8.130648931903295e-15,0.0,2.284958600997925,-0.02284957841038704,0.01594112440943718,-0.022849585860967636,8.381903171539307e-09,0.0,-0.01610899716615677,0.17784957587718964,0.8987011945563849,0.25578588247299194,0.5162068605422974,0.23967686295509338,0.5587926506996155,2.2876617908477783,0.99703049659729,,,,,,,
4637100000.0,73.89,0.4399999976158142,12041169408.0,1843.7100605413316,146.0,0.004292254336178303,602112.0,1279.4133684635162,8.382183835919932e-15,0.0,2.3176183700561523,-0.02317618764936924,0.003244834952056408,-0.02317618392407894,-3.725290298461914e-09,0.0,-0.0026402100920677185,0.08052504062652588,0.9738291040800638,0.2643735110759735,0.4985541105270386,0.2617332935333252,0.49776187539100647,2.2216074466705322,0.9971230030059814,,,,,,,
4637100000.0,77.09,0.5,12041169408.0,1831.0143346706163,147.0,0.006351877935230732,606208.0,1281.650379896164,8.32320323773672e-15,0.0,2.330756902694702,-0.02330756187438965,0.009808802977204323,-0.023307569324970245,7.450580596923828e-09,0.0,-0.01601613312959671,0.1391611099243164,0.9172146636029807,0.27460697293281555,0.5053941607475281,0.2585908770561218,0.48366114497184753,2.237011432647705,0.9973559379577637,,,,,,,
4637100000.0,76.13,0.46000000834465027,12041169408.0,1811.372212832584,148.0,0.004516787827014923,610304.0,1283.9116489887238,8.324937961212697e-15,0.0,2.3267822265625,-0.023267824202775955,0.02941923402249813,-0.023267822340130806,-9.313225746154785e-10,0.0,-0.034829072654247284,0.24008221924304962,0.806718023825747,0.24054314196109772,0.4878804385662079,0.20571407675743103,0.5460901260375977,2.2612690925598145,0.9968383312225342,,,,,,,
4637100000.0,72.69,0.4099999964237213,12041169408.0,1811.144016458554,149.0,0.005350797902792692,614400.0,1286.1732029914856,8.047382205056408e-15,0.0,2.3247084617614746,-0.02324708178639412,0.004399717785418034,-0.02324708364903927,1.862645149230957e-09,0.0,-0.0015966333448886871,0.09380317479372025,0.9614294027680396,0.24003444612026215,0.4702165722846985,0.23843780159950256,0.4776274561882019,2.261554002761841,0.9971733093261719,,,,,,,
4637100000.0,75.07,0.5899999737739563,12041169408.0,1862.4141563633257,150.0,0.007623482961207628,618496.0,1288.3724989891052,8.026565523344686e-15,0.0,2.3543224334716797,-0.023543231189250946,0.03589307516813278,-0.02354322373867035,-7.450580596923828e-09,0.0,-0.02200482040643692,0.26705682277679443,0.8130562992774519,0.29624953866004944,0.5218462944030762,0.2742447257041931,0.617658257484436,2.199295997619629,0.997478723526001,,,,,,,
4637100000.0,72.34,0.5400000214576721,12041169408.0,1842.0078321311228,151.0,0.005988947115838528,622592.0,1290.5961594581604,8.633718739936569e-15,0.0,2.3085708618164062,-0.023085709661245346,0.005945807788521051,-0.023085707798600197,-1.862645149230957e-09,0.0,0.00200726930052042,0.10904351621866226,0.9400774583891186,0.18729934096336365,0.44903674721717834,0.1893066018819809,0.4454559087753296,2.223660469055176,0.9976561069488525,,,,,,,
4637100000.0,69.12,0.5099999904632568,12041169408.0,1790.940895790006,152.0,0.006622700020670891,626688.0,1292.883225440979,7.485331798839923e-15,0.0,2.338686466217041,-0.023386862128973007,0.007372585590928793,-0.023386863991618156,1.862645149230957e-09,0.0,0.002804511459544301,0.12141212075948715,0.9458933603201591,0.26329073309898376,0.5317553877830505,0.26609525084495544,0.5219594836235046,2.2870659828186035,0.997443437576294,,,,,,,
4637100000.0,73.95,0.5299999713897705,12041169408.0,1811.9562372322296,153.0,0.006221815478056669,630784.0,1295.1437656879425,7.917277944358148e-15,0.0,2.356457233428955,-0.023564575240015984,0.013258968479931355,-0.023564571514725685,-3.725290298461914e-09,0.0,-0.005270777270197868,0.162777841091156,0.8951033901376083,0.2051849663257599,0.4467375576496124,0.19991417229175568,0.5025908350944519,2.260540246963501,0.9973511695861816,,,,,,,
4637100000.0,74.31,0.5299999713897705,12041169408.0,1813.2599478857946,154.0,0.004989237524569035,634880.0,1297.4026806354523,8.278100427361323e-15,0.0,2.31440806388855,-0.023144075646996498,0.0034758299589157104,-0.023144079372286797,3.725290298461914e-09,0.0,0.01448751986026764,0.08211831748485565,0.9556584113034804,0.166243314743042,0.37653329968452454,0.18073084950447083,0.3899729251861572,2.2589149475097656,0.9979312419891357,,,,,,,
4637100000.0,75.77,0.5899999737739563,12041169408.0,1864.216225554085,155.0,0.007707738317549229,638976.0,1299.599850654602,7.8236028766554e-15,0.0,2.3646554946899414,-0.02364657074213028,0.004337172955274582,-0.023646553978323936,-1.5832483768463135e-08,0.0,0.008949223905801773,0.09271653741598129,0.9636491420918155,0.28594180941581726,0.4771988093852997,0.2948910593986511,0.48629504442214966,2.1971700191497803,0.997445821762085,,,,,,,
4637100000.0,72.11,0.6800000071525574,12041169408.0,1850.9259746793985,156.0,0.007933039218187332,643072.0,1301.8127970695496,7.794112577563794e-15,0.0,2.324235677719116,-0.023242373019456863,0.004147994332015514,-0.02324235625565052,-1.6763806343078613e-08,0.0,0.01979757845401764,0.08891554921865463,0.9584935174737428,0.2048257291316986,0.4208458960056305,0.22462332248687744,0.43643516302108765,2.2129464149475098,0.9974346160888672,,,,,,,
4637100000.0,68.97,0.6000000238418579,12041169408.0,1777.9224625345005,157.0,0.007112869061529636,647168.0,1304.1166095733643,7.322267792098103e-15,0.0,2.3602607250213623,-0.02360261045396328,0.0038147233426570892,-0.02360260672867298,-3.725290298461914e-09,0.0,0.01926581561565399,0.08520590513944626,0.9647742621074782,0.22087500989437103,0.4371868073940277,0.24014082551002502,0.4539830982685089,2.3038125038146973,0.9973397254943848,,,,,,,
4637100000.0,71.87,0.5899999737739563,12041169408.0,1837.5044557148428,158.0,0.006499795708805323,651264.0,1306.3457198143005,7.61196661258623e-15,0.0,2.370166778564453,-0.02370166778564453,0.0020980832632631063,-0.02370166778564453,0.0,0.0,0.011335930787026882,0.06378602236509323,0.9743429150007451,0.19011646509170532,0.3810769021511078,0.20145238935947418,0.39821889996528625,2.2291102409362793,0.9972708225250244,,,,,,,
4637100000.0,72.83,0.5299999713897705,12041169408.0,1810.6168068043455,159.0,0.006093200761824846,655360.0,1308.6079323291779,9.058725991550887e-15,0.0,2.326101303100586,-0.023261016234755516,0.00433082552626729,-0.023261012509465218,-4.190951585769653e-09,0.0,0.018716275691986084,0.09117774665355682,0.957335145022477,0.21148820221424103,0.4333021640777588,0.2302044928073883,0.4414217472076416,2.2622125148773193,0.9974527359008789,,,,,,,
,,,,,,,,,,,,,,,,,,,,,,,,,,0.0011183522874489427,0.014219685457646847,0.011756994761526585,0.0011183522874489427,0.014219685457646847,0.011756994761526585,
,,,,,,,,,,,,,,,,,,,,,,,,,,0.0006483446923084557,0.011263774707913399,0.011140957474708557,0.0006483446923084557,0.011263774707913399,0.011140957474708557,
,,,,,,,,,,,,,,,,,,,,,,,,,,0.0005421959795057774,0.010808992199599743,0.010460267774760723,0.0005421959795057774,0.010808992199599743,0.010460267774760723,
,,,,,,,,,,,,,,,,,,,,,,,,,,0.0006903134053573012,0.010923129506409168,0.010871046222746372,0.0006903134053573012,0.010923129506409168,0.010871046222746372,
,,,,,,,,,,,,,,,,,,,,,,,,,,0.0005697659216821194,0.010622043162584305,0.010392429307103157,0.0005697659216821194,0.010622043162584305,0.010392429307103157,
,,,,,,,,,,,,,,,,,,,,,,,,,,0.0008243035990744829,0.010671708732843399,0.010731023736298084,0.0008243035990744829,0.010671708732843399,0.010731023736298084,
,,,,,,,,,,,,,,,,,,,,,,,,,,,,,,,,-1.24
4637100000.0,73.22,0.6100000143051147,11990521856.0,17.059139775304793,160.0,0.007789990399032831,659456.0,1548.7138259410858,8.281569874313277e-15,0.0,2.3424792289733887,-0.023424789309501648,0.004816653206944466,-0.023424791172146797,1.862645149230957e-09,0.0,0.016570206731557846,0.09675236791372299,0.9657275716387214,0.28173041343688965,0.5157902836799622,0.2983006238937378,0.5226237177848816,240.10589361190796,0.9968442916870117,,,,,,,
4637100000.0,74.91,0.5699999928474426,12041169408.0,1889.4480981262318,161.0,0.006330797448754311,663552.0,1550.8816547393799,8.293712938645115e-15,0.0,2.363903045654297,-0.023639019578695297,0.0017610850045457482,-0.023639030754566193,1.1175870895385742e-08,0.0,0.014879818074405193,0.0574592687189579,0.9834271017424714,0.23942257463932037,0.4330751597881317,0.25430238246917725,0.4463348984718323,2.1678287982940674,0.9972374439239502,,,,,,,
4637100000.0,78.29,0.5699999928474426,12041169408.0,1845.4949314567436,162.0,0.0059219482354819775,667648.0,1553.1011135578156,7.360431708569593e-15,0.0,2.3815293312072754,-0.023815304040908813,0.001254575327038765,-0.023815292865037918,-1.1175870895385742e-08,0.0,0.006598892621695995,0.049660924822092056,0.9893454051729059,0.2831711769104004,0.4714112877845764,0.28977006673812866,0.48111215233802795,2.219458818435669,0.9967377185821533,,,,,,,
4637100000.0,77.37,0.5099999904632568,12041169408.0,1813.1592867285228,163.0,0.004875708371400833,671744.0,1555.360153913498,8.344019919448442e-15,0.0,2.3585290908813477,-0.023585282266139984,0.001429080031812191,-0.02358528971672058,7.450580596923828e-09,0.0,0.005960508249700069,0.053134940564632416,0.981836434414904,0.17225155234336853,0.3870769739151001,0.17821207642555237,0.39425724744796753,2.259040355682373,0.9973347187042236,,,,,,,
4637100000.0,75.92,0.47999998927116394,12041169408.0,1859.9329059280346,164.0,0.006161415949463844,675840.0,1557.562383890152,8.217385105702135e-15,0.0,2.384685516357422,-0.02384684607386589,0.0027665244415402412,-0.023846855387091637,9.313225746154785e-09,0.0,0.00900804903358221,0.07384602725505829,0.9723435618885239,0.2267049252986908,0.4398481547832489,0.23571297526359558,0.44404709339141846,2.2022299766540527,0.9965524673461914,,,,,,,
4637100000.0,78.35,0.5799999833106995,12041169408.0,1874.104100403001,165.0,0.007023980375379324,679936.0,1559.7479615211487,8.796782746678389e-15,0.0,2.3724241256713867,-0.023724259808659554,0.0156426839530468,-0.02372424118220806,-1.862645149230957e-08,0.0,-0.001534326933324337,0.17689165472984314,0.8836872669320961,0.2544806897640228,0.4821610152721405,0.2529463768005371,0.5186730623245239,2.185577630996704,0.9969384670257568,,,,,,,
4637100000.0,75.3,0.6600000262260437,12041169408.0,1869.7701878219134,166.0,0.008103230968117714,684032.0,1561.9386050701141,8.984132882083884e-15,0.0,2.319746971130371,-0.023197486996650696,0.0021805735304951668,-0.023197468370199203,-1.862645149230957e-08,0.0,0.010782003402709961,0.06516081839799881,0.9840672709094275,0.270383358001709,0.5138130187988281,0.28116539120674133,0.5162278413772583,2.190643548965454,0.997229814529419,,,,,,,
4637100000.0,69.75,0.6399999856948853,12041169408.0,1803.789391810713,167.0,0.008117934688925743,688128.0,1564.2093801498413,7.827072323607354e-15,0.0,2.310206413269043,-0.02310207113623619,0.0013905928935855627,-0.023102063685655594,-7.450580596923828e-09,0.0,0.007388386409729719,0.05222320556640625,0.9888940950158592,0.25273680686950684,0.49330949783325195,0.26012521982192993,0.49554890394210815,2.270775079727173,0.9974231719970703,,,,,,,
4637100000.0,73.25,0.6700000166893005,12041169408.0,1873.6842730709493,168.0,0.007489743642508984,692224.0,1566.3954474925995,8.546982566137729e-15,0.0,2.3236613273620605,-0.023236611858010292,0.020121974870562553,-0.023236611858010292,0.0,0.0,-0.007304167374968529,0.20050041377544403,0.8806830721441267,0.2931813597679138,0.5507497787475586,0.2858772277832031,0.5804492235183716,2.1860673427581787,0.9972634315490723,,,,,,,
4637100000.0,74.12,0.6000000238418579,12041169408.0,1860.9934730410619,169.0,0.007932420819997787,696320.0,1568.5964224338531,8.389122729823839e-15,0.0,2.258028745651245,-0.022580280900001526,0.021175837144255638,-0.022580286487936974,5.587935447692871e-09,0.0,0.008796200156211853,0.2056322544813156,0.8489454045139567,0.25085920095443726,0.5616963505744934,0.2596553862094879,0.5290835499763489,2.200974941253662,0.9967646598815918,,,,,,,
4637100000.0,70.42,0.5699999928474426,12041169408.0,1823.5912712788875,170.0,0.005584621801972389,700416.0,1570.8425397872925,9.874046025259986e-15,0.0,2.271254539489746,-0.022712547332048416,0.007551528979092836,-0.022712545469403267,-1.862645149230957e-09,0.0,0.003766987007111311,0.12285174429416656,0.9224591754172478,0.2223522812128067,0.4172232449054718,0.226119264960289,0.4411803185939789,2.246117353439331,0.9968733787536621,,,,,,,
4637100000.0,75.54,0.46000000834465027,12041169408.0,1849.1158601532518,171.0,0.006241347175091505,704512.0,1573.0576524734497,9.154135782729611e-15,0.0,2.2571120262145996,-0.022571124136447906,0.0031464560888707638,-0.022571120411157608,-3.725290298461914e-09,0.0,0.009188163094222546,0.07880359143018723,0.9621976319000016,0.1819470375776291,0.40509551763534546,0.1911352127790451,0.40530925989151,2.2151126861572266,0.9970762729644775,,,,,,,
4637100000.0,79.56,0.6100000143051147,12041169408.0,1868.8437212682127,172.0,0.008192544803023338,708608.0,1575.249382019043,8.435960263675213e-15,0.0,2.2362232208251953,-0.022362232208251953,0.0038103978149592876,-0.022362232208251953,0.0,0.0,0.00797833688557148,0.08694243431091309,0.9723688441801616,0.2909742295742035,0.5237493515014648,0.298952579498291,0.5230368375778198,2.1917295455932617,0.9970393180847168,,,,,,,
4637100000.0,75.05,0.6899999976158142,12041169408.0,1869.2046391009471,173.0,0.00842518825083971,712704.0,1577.4406883716583,8.795048023202412e-15,0.0,2.224081516265869,-0.022240810096263885,0.0015984138008207083,-0.022240813821554184,3.725290298461914e-09,0.0,-0.003431884339079261,0.05644313618540764,0.9905648744023811,0.39808768033981323,0.5821784734725952,0.39465582370758057,0.5810818076133728,2.1913063526153564,0.996936559677124,,,,,,,
4637100000.0,72.91,0.6700000166893005,12041169408.0,1792.0922632034028,174.0,0.00800794456154108,716800.0,1579.726284980774,9.428222091933947e-15,0.0,2.282581329345703,-0.022825812920928,0.0038472297601401806,-0.022825812920928,0.0,0.0,0.003108842996880412,0.08767366409301758,0.9676229020866893,0.3083186149597168,0.49069589376449585,0.31142741441726685,0.48724815249443054,2.2855966091156006,0.9969210624694824,,,,,,,
4637100000.0,79.27,0.7099999785423279,12041169408.0,1833.7154510915652,175.0,0.008021680638194084,720896.0,1581.9600012302399,7.835745940987238e-15,0.0,2.2327470779418945,-0.022327467799186707,0.003610446583479643,-0.022327469661831856,9.313225746154785e-10,0.0,-0.001547275809571147,0.08497212827205658,0.975592180220536,0.30831214785575867,0.5463328957557678,0.3067649006843567,0.5438911318778992,2.2337162494659424,0.996739387512207,,,,,,,
4637100000.0,73.12,0.6100000143051147,12041169408.0,1859.4354767188356,176.0,0.007386483252048492,724992.0,1584.1628203392029,9.360567876370851e-15,0.0,2.238807439804077,-0.022388063371181488,0.002543778857216239,-0.022388074547052383,1.1175870895385742e-08,0.0,-0.0016958636697381735,0.07131565362215042,0.9746944479598427,0.24293965101242065,0.4519215226173401,0.24124377965927124,0.448308527469635,2.2028191089630127,0.9971249103546143,,,,,,,
4637100000.0,73.76,0.5600000023841858,12041169408.0,1857.6358045916609,177.0,0.006965470500290394,729088.0,1586.3677735328674,9.02403152203135e-15,0.0,2.2290220260620117,-0.022290222346782684,0.0019365192856639624,-0.022290220484137535,-1.862645149230957e-09,0.0,-0.0006388523615896702,0.06223805993795395,0.9867387777999233,0.3327048420906067,0.5384236574172974,0.33206596970558167,0.540461003780365,2.204953193664551,0.9971392154693604,,,,,,,
4637100000.0,78.07,0.6299999952316284,12041169408.0,1796.7488412555083,178.0,0.005669994745403528,733184.0,1588.6474466323853,8.32320323773672e-15,0.0,2.2765398025512695,-0.0227653905749321,0.017366167157888412,-0.022765398025512695,7.450580596923828e-09,0.0,-0.01232965849339962,0.18598052859306335,0.8790424022580343,0.3207358717918396,0.5180336236953735,0.3084062337875366,0.5347501039505005,2.2796730995178223,0.996800422668457,,,,,,,
4637100000.0,81.1,0.5600000023841858,12041169408.0,1858.185932062561,179.0,0.006118587218225002,737280.0,1590.8517470359802,9.710982018518166e-15,0.0,2.223031520843506,-0.02223031409084797,0.00392540730535984,-0.02223031409084797,0.0,0.0,0.009098239243030548,0.08814723044633865,0.9718593663922773,0.29815009236335754,0.5237247943878174,0.3072483241558075,0.5254625678062439,2.2043004035949707,0.9967279434204102,,,,,,,
4637100000.0,83.04,0.5699999928474426,12041169408.0,1794.974074442467,180.0,0.006348166614770889,741376.0,1593.1336741447449,9.981598880770548e-15,0.0,2.2632968425750732,-0.022632958367466927,0.016149228438735008,-0.022632967680692673,9.313225746154785e-09,0.0,-0.019902676343917847,0.17863406240940094,0.8454724265726831,0.25599807500839233,0.43436262011528015,0.2360953986644745,0.45442402362823486,2.2819271087646484,0.9971611499786377,,,,,,,
4637100000.0,72.64,0.47999998927116394,12041169408.0,1821.6387073392134,181.0,0.006360284052789211,745472.0,1595.382199048996,9.272096979096034e-15,0.0,2.2470543384552,-0.022470533847808838,0.0005462811095640063,-0.022470543161034584,1.0244548320770264e-08,0.0,-3.289914457127452e-05,0.03305795043706894,0.9933965263518223,0.18532145023345947,0.4053131341934204,0.18528854846954346,0.4068082273006439,2.2485249042510986,0.9970614910125732,,,,,,,
4637100000.0,74.43,0.5600000023841858,12041169408.0,1854.2494025450685,182.0,0.006810198072344065,749568.0,1597.5911791324615,8.533104778329914e-15,0.0,2.276313543319702,-0.02276313118636608,0.001719823805615306,-0.02276313491165638,3.725290298461914e-09,0.0,0.00779782235622406,0.05813490226864815,0.9805595926099002,0.2116055190563202,0.4102118909358978,0.21940335631370544,0.4169502258300781,2.208980083465576,0.9967281818389893,,,,,,,
4637100000.0,76.45,0.6000000238418579,12041169408.0,1886.1199926179468,183.0,0.006823659874498844,753664.0,1599.7628331184387,8.349224089876373e-15,0.0,2.2981903553009033,-0.022981906309723854,0.0020250219386070967,-0.022981902584433556,-3.725290298461914e-09,0.0,0.007481591776013374,0.06320637464523315,0.9837412160884687,0.3145284652709961,0.49338850378990173,0.3220100402832031,0.49569761753082275,2.171653985977173,0.9966623783111572,,,,,,,
4637100000.0,78.6,0.550000011920929,12041169408.0,1880.0928479651013,184.0,0.005734668113291264,757760.0,1601.9414489269257,8.921682836948719e-15,0.0,2.2602272033691406,-0.022602271288633347,0.002738810144364834,-0.022602271288633347,0.0,0.0,0.006530215032398701,0.07373128831386566,0.973320101948444,0.21006634831428528,0.44275492429733276,0.2165965586900711,0.4513981342315674,2.1786158084869385,0.9966933727264404,,,,,,,
4637100000.0,77.61,0.49000000953674316,12041169408.0,1829.8198342264336,185.0,0.00640878127887845,761856.0,1604.1799206733704,9.107298248878237e-15,0.0,2.274038791656494,-0.022740377113223076,0.0019441491458564997,-0.02274038828909397,1.1175870895385742e-08,0.0,0.014325123280286789,0.06069587171077728,0.9761484363241434,0.17551648616790771,0.38067927956581116,0.189841628074646,0.39300742745399475,2.238471746444702,0.9969215393066406,,,,,,,
4637100000.0,76.57,0.4000000059604645,12041169408.0,1846.7846336028786,186.0,0.0033223384525626898,765952.0,1606.3978295326233,7.827072323607354e-15,0.0,2.304323673248291,-0.023043232038617134,0.0037009778898209333,-0.023043235763907433,3.725290298461914e-09,0.0,0.012077594175934792,0.08519307523965836,0.9513222791780185,0.2106926143169403,0.37901008129119873,0.22277022898197174,0.3861350417137146,2.2179088592529297,0.9973065853118896,,,,,,,
4637100000.0,84.84,0.4399999976158142,12041169408.0,1799.7003323185586,187.0,0.00599147193133831,770048.0,1608.6737639904022,9.072603779358701e-15,0.0,2.286964178085327,-0.022869637235999107,0.018172988668084145,-0.022869640961289406,3.725290298461914e-09,0.0,-0.000437695998698473,0.190668985247612,0.8558330614817217,0.281415194272995,0.456269770860672,0.2809774875640869,0.5021658539772034,2.2759344577789307,0.9972500801086426,,,,,,,
4637100000.0,86.29,0.5799999833106995,12041169408.0,1879.7735790012593,188.0,0.00644713593646884,774144.0,1610.852749824524,9.331077577279245e-15,0.0,2.2971134185791016,-0.022971143946051598,0.003944529220461845,-0.022971132770180702,-1.1175870895385742e-08,0.0,0.017482783645391464,0.08709342032670975,0.9657165120664449,0.26401275396347046,0.4602857232093811,0.2814955413341522,0.4703734517097473,2.178985834121704,0.9968235492706299,,,,,,,
4637100000.0,81.98,0.6000000238418579,12041169408.0,1837.706907691215,189.0,0.005569056142121553,778240.0,1613.0816144943237,9.14372744187375e-15,0.0,2.3154890537261963,-0.02315489575266838,0.0031404418405145407,-0.023154890164732933,-5.587935447692871e-09,0.0,0.019983280450105667,0.07670064270496368,0.9702289968785176,0.24633216857910156,0.4337391257286072,0.2663154602050781,0.44453123211860657,2.2288646697998047,0.9966042041778564,,,,,,,
4637100000.0,81.58,0.4699999988079071,12041169408.0,1853.6894023726757,190.0,0.005578726064413786,782336.0,1615.2912619113922,9.01882735160342e-15,0.0,2.321626663208008,-0.023216258734464645,0.019606465473771095,-0.023216266185045242,7.450580596923828e-09,0.0,0.010714393109083176,0.19775663316249847,0.8214060792025254,0.23434685170650482,0.4231921136379242,0.2450612336397171,0.4679481089115143,2.2096474170684814,0.9968600273132324,,,,,,,
4637100000.0,87.78,0.5899999737739563,12041169408.0,1876.4318888811827,191.0,0.008045612834393978,786432.0,1617.4741282463074,9.365772046798782e-15,0.0,2.26906418800354,-0.02269064076244831,0.008747586980462074,-0.02269064076244831,-4.656612873077393e-10,0.0,0.0364626981317997,0.1271597146987915,0.9006069553994149,0.27520284056663513,0.38301369547843933,0.31166553497314453,0.403340220451355,2.182866334915161,0.9967288970947266,,,,,,,
,,,,,,,,,,,,,,,,,,,,,,,,,,0.0008578004781156778,0.007851485162973404,0.006382656749337912,0.0008578004781156778,0.007851485162973404,0.006382656749337912,
,,,,,,,,,,,,,,,,,,,,,,,,,,0.0006626180838793516,0.006665282882750034,0.006277577020227909,0.0006626180838793516,0.006665282882750034,0.006277577020227909,
,,,,,,,,,,,,,,,,,,,,,,,,,,0.00047807060764171183,0.006248277146369219,0.00590767664834857,0.00047807060764171183,0.006248277146369219,0.00590767664834857,
,,,,,,,,,,,,,,,,,,,,,,,,,,0.0004365823115222156,0.006119358353316784,0.005493140313774347,0.0004365823115222156,0.006119358353316784,0.005493140313774347,
,,,,,,,,,,,,,,,,,,,,,,,,,,0.0004833322309423238,0.005939599126577377,0.005504967644810677,0.0004833322309423238,0.005939599126577377,0.005504967644810677,
,,,,,,,,,,,,,,,,,,,,,,,,,,0.00049674540059641,0.005849603563547134,0.005339325405657291,0.00049674540059641,0.005849603563547134,0.005339325405657291,
,,,,,,,,,,,,,,,,,,,,,,,,,,,,,,,,-1.94
4637100000.0,101.33,0.8100000023841858,11990521856.0,17.075446561587007,192.0,0.006939560640603304,790528.0,1857.3507244586945,7.414208136324874e-15,0.0,2.300213575363159,-0.0230021420866251,0.008436866104602814,-0.023002134636044502,-7.450580596923828e-09,0.0,0.04285192862153053,0.12264223396778107,0.9284018990678463,0.2801450192928314,0.43513908982276917,0.32299691438674927,0.4583415687084198,239.87659621238708,0.9968769550323486,,,,,,,
4637100000.0,95.88,0.8199999928474426,12041169408.0,1850.1055455559115,193.0,0.008742986246943474,794624.0,1859.5646522045135,9.017092628127443e-15,0.0,2.308128595352173,-0.02308129332959652,0.005803311243653297,-0.023081285879015923,-7.450580596923828e-09,0.0,0.03206222876906395,0.10286504775285721,0.9581621793669036,0.29251694679260254,0.48601919412612915,0.3245791792869568,0.5029019713401794,2.213927745819092,0.996920108795166,,,,,,,
4637100000.0,77.77,0.6899999976158142,12041169408.0,1798.837278851533,194.0,0.006962160114198923,798720.0,1861.8416786193848,8.713516019831502e-15,0.0,2.3709464073181152,-0.023709462955594063,0.002215542132034898,-0.023709462955594063,0.0,0.0,0.0007508288836106658,0.06657028943300247,0.9819486421627004,0.3113761246204376,0.4977447986602783,0.3121269941329956,0.4954792559146881,2.277026414871216,0.9965786933898926,,,,,,,
4637100000.0,80.02,0.6499999761581421,12041169408.0,1851.1820592154334,195.0,0.0067476872354745865,802816.0,1864.0543189048767,8.831477216197925e-15,0.0,2.3450708389282227,-0.0234506968408823,0.0057152509689331055,-0.023450708016753197,1.1175870895385742e-08,0.0,0.030644698068499565,0.10244005918502808,0.9427347580018504,0.2408217489719391,0.39727160334587097,0.2714664340019226,0.4280793368816376,2.2126402854919434,0.9970910549163818,,,,,,,
4637100000.0,85.41,0.6899999976158142,12041169408.0,1806.179977427835,196.0,0.00855945609509945,806912.0,1866.3220884799957,9.51322354225681e-15,0.0,2.3337225914001465,-0.02333723194897175,0.018598968163132668,-0.02333722449839115,-7.450580596923828e-09,0.0,0.004189842380583286,0.1928456872701645,0.9093889990550954,0.42583322525024414,0.5937778353691101,0.43002310395240784,0.6406480073928833,2.2677695751190186,0.9971697330474854,,,,,,,
4637100000.0,88.19,0.7599999904632568,12041169408.0,1836.6094844604336,197.0,0.00812062993645668,811008.0,1868.5522849559784,8.65453542164829e-15,0.0,2.3592352867126465,-0.023592349141836166,0.022723618894815445,-0.023592352867126465,3.725290298461914e-09,0.0,-0.0003782687708735466,0.21320928633213043,0.884317846454349,0.42261022329330444,0.5922250151634216,0.4222319722175598,0.6268633604049683,2.230196475982666,0.996851921081543,,,,,,,
4637100000.0,85.64,0.6800000071525574,12041169408.0,1803.0788996810898,198.0,0.007004216313362122,815104.0,1870.823954820633,8.576472865229334e-15,0.0,2.382693290710449,-0.023826949298381805,0.003916476387530565,-0.023826932534575462,-1.6763806343078613e-08,0.0,0.020010804757475853,0.08622259646654129,0.9701911803323199,0.309535950422287,0.48562565445899963,0.3295467495918274,0.49940016865730286,2.271669864654541,0.9969003200531006,,,,,,,
4637100000.0,83.25,0.6499999761581421,12041169408.0,1818.0733084910808,199.0,0.007918698713183403,819200.0,1873.0768892765045,8.916478666520788e-15,0.0,2.4146933555603027,-0.024146931245923042,0.00920749269425869,-0.02414693310856819,1.862645149230957e-09,0.0,0.039388611912727356,0.12987548112869263,0.9354537935713321,0.32923299074172974,0.4820929169654846,0.3686215877532959,0.5112011432647705,2.252934455871582,0.9968492984771729,,,,,,,
4637100000.0,90.37,0.7699999809265137,12041169408.0,1827.4176194821646,200.0,0.009062610566616058,823296.0,1875.3183035850525,8.215650382226158e-15,0.0,2.384838581085205,-0.023848388344049454,0.008568530902266502,-0.023848384618759155,-3.725290298461914e-09,0.0,0.0037144517991691828,0.13087187707424164,0.9497396760156306,0.34507107734680176,0.5697838664054871,0.34878551959991455,0.5837591290473938,2.2414143085479736,0.9981696605682373,,,,,,,
4637100000.0,80.43,0.7400000095367432,12041169408.0,1858.3308518261917,201.0,0.007486671209335327,827392.0,1877.522432088852,9.157605229681565e-15,0.0,2.3807802200317383,-0.02380780316889286,0.006304333917796612,-0.02380780130624771,-1.862645149230957e-09,0.0,0.008718806318938732,0.11196299642324448,0.9577244562834832,0.31009480357170105,0.5367941856384277,0.31881362199783325,0.5445401072502136,2.2041285037994385,0.9969449043273926,,,,,,,
4637100000.0,75.97,0.6899999976158142,12041169408.0,1831.3908521650178,202.0,0.008179381489753723,831488.0,1879.7589836120605,9.058725991550887e-15,0.0,2.362506866455078,-0.023625068366527557,0.02061888948082924,-0.023625068366527557,0.0,0.0,-0.0341014489531517,0.2002115249633789,0.9164482333623213,0.447498083114624,0.6705182790756226,0.41339659690856934,0.6926458477973938,2.236551523208618,0.9971461296081543,,,,,,,
4637100000.0,78.74,0.6299999952316284,12041169408.0,1847.2427416946828,203.0,0.006827184930443764,835584.0,1881.9763424396515,9.452508220597622e-15,0.0,2.427609443664551,-0.024276092648506165,0.009979112073779106,-0.024276094511151314,1.862645149230957e-09,0.0,0.01375969871878624,0.14061906933784485,0.9459631982652398,0.4532007873058319,0.5902277827262878,0.46696048974990845,0.6049220561981201,2.2173588275909424,0.9965980052947998,,,,,,,
4637100000.0,88.45,0.6899999976158142,12041169408.0,1858.5851692861595,204.0,0.008658820763230324,839680.0,1884.1801693439484,1.0141193440560414e-14,0.0,2.3899447917938232,-0.023899439722299576,0.010923221707344055,-0.023899447172880173,7.450580596923828e-09,0.0,0.005297170951962471,0.14772850275039673,0.9482573731434747,0.48109638690948486,0.6350303888320923,0.4863935708999634,0.6494415998458862,2.203826904296875,0.9967308044433594,,,,,,,
4637100000.0,90.85,0.699999988079071,12041169408.0,1894.8300837338186,205.0,0.007073602639138699,843776.0,1886.3418407440186,9.117706589734098e-15,0.0,2.3750691413879395,-0.02375068888068199,0.04648979753255844,-0.02375069074332714,1.862645149230957e-09,0.0,-0.00857594609260559,0.30484214425086975,0.8430801086047461,0.7219494581222534,0.6860203742980957,0.7133734822273254,0.7695485353469849,2.1616714000701904,0.9971423149108887,,,,,,,
4637100000.0,96.92,0.800000011920929,12041169408.0,1890.3214785727457,206.0,0.006397389806807041,847872.0,1888.5086679458618,9.808126533172867e-15,0.0,2.3938329219818115,-0.023938318714499474,0.038694798946380615,-0.02393832802772522,9.313225746154785e-09,0.0,-0.0032588299363851547,0.2782047390937805,0.8418916110672628,0.5179377198219299,0.6455508470535278,0.5146788954734802,0.699660062789917,2.1668272018432617,0.9968056678771973,,,,,,,
4637100000.0,99.8,0.7799999713897705,12041169408.0,1871.36900006808,207.0,0.0070939743891358376,851968.0,1890.6974399089813,1.0278236595162582e-14,0.0,2.409899950027466,-0.024098999798297882,0.03292614966630936,-0.024098999798297882,0.0,0.0,0.01385380420833826,0.2562740743160248,0.8634742276124565,0.6261498928070068,0.6560972332954407,0.6400036811828613,0.693581223487854,2.188771963119507,0.9970371723175049,,,,,,,
4637100000.0,98.91,0.7200000286102295,12041169408.0,1801.4806841106831,208.0,0.006872185040265322,856064.0,1892.971125125885,1.1109169140155473e-14,0.0,2.312317132949829,-0.023123163729906082,0.07414750754833221,-0.02312317118048668,7.450580596923828e-09,0.0,-0.054720476269721985,0.38122981786727905,0.7125889605251735,0.4965440630912781,0.645005464553833,0.4418235421180725,0.7111072540283203,2.2736852169036865,0.9974374771118164,,,,,,,
4637100000.0,94.93,0.7699999809265137,12041169408.0,1808.7246661072002,209.0,0.009172840043902397,860160.0,1895.2357041835785,1.0722325805012645e-14,0.0,2.3196518421173096,-0.02319653332233429,0.017017381265759468,-0.023196518421173096,-1.4901161193847656e-08,0.0,0.016730189323425293,0.18374739587306976,0.9295424041884404,0.5177931785583496,0.6866868734359741,0.5345233678817749,0.6922408938407898,2.2645790576934814,0.9967896938323975,,,,,,,
4637100000.0,92.85,0.9900000095367432,12041169408.0,1800.7446402020873,210.0,0.012164155952632427,864256.0,1897.5103187561035,1.132254012770062e-14,0.0,2.2689685821533203,-0.02268970012664795,0.022214636206626892,-0.022689685225486755,-1.4901161193847656e-08,0.0,0.05467661842703819,0.20359238982200623,0.8973933361488887,0.8042920827865601,0.6422742009162903,0.8589686751365662,0.6355851292610168,2.2746145725250244,0.9968268871307373,,,,,,,
4637100000.0,107.53,1.1699999570846558,12041169408.0,1806.5866235438095,211.0,0.008497018367052078,868352.0,1899.7775778770447,1.1910611386056758e-14,0.0,2.2865705490112305,-0.022865712642669678,0.05381961911916733,-0.02286570519208908,-7.450580596923828e-09,0.0,0.016504157334566116,0.32770881056785583,0.8138369497178015,0.589017391204834,0.6780206561088562,0.605521559715271,0.7595237493515015,2.267259120941162,0.9972832202911377,,,,,,,
4637100000.0,113.6,1.2400000095367432,12041169408.0,1790.2464571242608,212.0,0.010345817543566227,872448.0,1902.0655310153961,1.2627052181635179e-14,0.0,2.2461116313934326,-0.022461116313934326,0.01758544333279133,-0.022461116313934326,0.0,0.0,0.015610354021191597,0.18691103160381317,0.9286197532860463,0.6567949056625366,0.6816377639770508,0.6724052429199219,0.6995936632156372,2.2879531383514404,0.996701717376709,,,,,,,
4637100000.0,98.34,0.8799999952316284,12041169408.0,1856.214176333262,213.0,0.005982269532978535,876544.0,1904.2721729278564,1.2040715646755018e-14,0.0,2.260277032852173,-0.02260277047753334,0.07533379644155502,-0.02260277047753334,0.0,0.0,-0.011263079941272736,0.3880431354045868,0.7923011273587408,0.5716531276702881,0.7047864198684692,0.5603901147842407,0.8514574766159058,2.206641912460327,0.9967083930969238,,,,,,,
4637100000.0,93.1,0.7699999809265137,12041169408.0,1849.1168552805334,214.0,0.00990375503897667,880640.0,1906.4872844219208,1.2155207396169487e-14,0.0,2.226980686187744,-0.022269800305366516,0.02281595766544342,-0.022269805893301964,6.51925802230835e-09,0.0,0.04581652954220772,0.20867052674293518,0.9114396116243118,0.622783362865448,0.670158326625824,0.6685998439788818,0.7011991143226624,2.215111494064331,0.9967231750488281,,,,,,,
4637100000.0,99.06,0.9800000190734863,12041169408.0,1832.053305265807,215.0,0.010374137200415134,884736.0,1908.723027229309,1.2588888265163689e-14,0.0,2.230070114135742,-0.02230069972574711,0.01784963719546795,-0.02230069972574711,0.0,0.0,0.016155317425727844,0.1882735788822174,0.938650951255433,0.7509040832519531,0.7319089770317078,0.7670594453811646,0.7601258158683777,2.2357428073883057,0.9978249073028564,,,,,,,
4637100000.0,98.5,0.949999988079071,12041169408.0,1856.9641586974951,216.0,0.0073877302929759026,888832.0,1910.9287779331207,1.186550857568136e-14,0.0,2.2686164379119873,-0.02268616482615471,0.04151599109172821,-0.02268616296350956,-1.862645149230957e-09,0.0,-0.012173456139862537,0.28793057799339294,0.8589278179297454,0.5202473402023315,0.7444158792495728,0.5080739259719849,0.7665970325469971,2.2057507038116455,0.9970355033874512,,,,,,,
4637100000.0,85.63,0.75,12041169408.0,1861.9428431216675,217.0,0.008550556376576424,892928.0,1913.1286306381226,1.2503886814840826e-14,0.0,2.2006995677948,-0.022006995975971222,0.02127690613269806,-0.022006995975971222,0.0,0.0,-0.008543488569557667,0.20613393187522888,0.9306129250519732,0.5905331969261169,0.7642194628715515,0.5819897055625916,0.7825465202331543,2.199852705001831,0.9967434406280518,,,,,,,
4637100000.0,85.34,0.75,12041169408.0,1858.7263304329913,218.0,0.008792035281658173,897024.0,1915.332290172577,1.3114509478384662e-14,0.0,2.1904420852661133,-0.021904416382312775,0.024653557687997818,-0.021904420107603073,3.725290298461914e-09,0.0,0.019359219819307327,0.2212335616350174,0.9345895920837876,0.9333442449569702,0.8140994906425476,0.9527034759521484,0.8650228381156921,2.2036595344543457,0.9967813491821289,,,,,,,
4637100000.0,102.18,1.0199999809265137,12041169408.0,1793.9225850725709,219.0,0.009032608941197395,901120.0,1917.6155548095703,1.1412745748451414e-14,0.0,2.1849217414855957,-0.02184920944273472,0.026315413415431976,-0.021849216893315315,7.450580596923828e-09,0.0,0.02631615474820137,0.227927565574646,0.9429825234432864,0.8317951560020447,0.8840429186820984,0.8581112623214722,0.9545370936393738,2.283264636993408,0.9967708587646484,,,,,,,
4637100000.0,104.14,0.9399999976158142,12041169408.0,1779.263323863189,220.0,0.009275385178625584,905216.0,1919.917631149292,1.1872447469585268e-14,0.0,2.2540225982666016,-0.022540230304002762,0.023273617029190063,-0.022540224716067314,-5.587935447692871e-09,0.0,0.01733420044183731,0.21507686376571655,0.9443200471989581,0.677325427532196,0.8869353532791138,0.6946595907211304,0.9114739894866943,2.3020763397216797,0.9968125820159912,,,,,,,
4637100000.0,99.93,0.9900000095367432,12041169408.0,1856.8156389596609,221.0,0.010213075205683708,909312.0,1922.1235582828522,1.1737139038459077e-14,0.0,2.226933240890503,-0.02226932905614376,0.03660054877400398,-0.02226933278143406,3.725290298461914e-09,0.0,0.003661118447780609,0.2705652713775635,0.9365317901354129,1.1091632843017578,1.0341938734054565,1.1128244400024414,1.0739744901657104,2.2059271335601807,0.9968166351318359,,,,,,,
4637100000.0,92.66,0.9399999976158142,12041169408.0,1901.3387146719613,222.0,0.0074343327432870865,913408.0,1924.2778298854828,1.2240208846492351e-14,0.0,2.249049663543701,-0.022490499541163445,0.03742140159010887,-0.022490495815873146,-3.725290298461914e-09,0.0,-0.01778571307659149,0.273028701543808,0.9211493228311186,0.595980167388916,0.9358838200569153,0.5781944990158081,0.9723119139671326,2.1542716026306152,0.9972784519195557,,,,,,,
4637100000.0,86.06,0.7699999809265137,12041169408.0,1831.1862760177257,223.0,0.00860197376459837,917504.0,1926.5146312713623,1.1960918366860085e-14,0.0,2.2573513984680176,-0.02257351763546467,0.08327533304691315,-0.02257351391017437,-3.725290298461914e-09,0.0,-0.049673762172460556,0.4051212966442108,0.8899445734088409,1.0595507621765137,1.1470553874969482,1.0098769664764404,1.2211790084838867,2.2368013858795166,0.9972846508026123,,,,,,,
,,,,,,,,,,,,,,,,,,,,,,,,,,0.01364751998335123,0.0772540271282196,0.078698068857193,0.01364751998335123,0.0772540271282196,0.078698068857193,
,,,,,,,,,,,,,,,,,,,,,,,,,,0.005709979683160782,0.061198171228170395,0.06496094912290573,0.005709979683160782,0.061198171228170395,0.06496094912290573,
,,,,,,,,,,,,,,,,,,,,,,,,,,0.0043616825714707375,0.05775589868426323,0.059544071555137634,0.0043616825714707375,0.05775589868426323,0.059544071555137634,
,,,,,,,,,,,,,,,,,,,,,,,,,,0.004822916351258755,0.058362897485494614,0.05901855602860451,0.004822916351258755,0.058362897485494614,0.05901855602860451,
,,,,,,,,,,,,,,,,,,,,,,,,,,0.003349964041262865,0.05279958248138428,0.053957656025886536,0.003349964041262865,0.05279958248138428,0.053957656025886536,
,,,,,,,,,,,,,,,,,,,,,,,,,,0.0034912927076220512,0.054916027933359146,0.05474572256207466,0.0034912927076220512,0.054916027933359146,0.05474572256207466,
,,,,,,,,,,,,,,,,,,,,,,,,,,,,,,,,-1.89
4637100000.0,93.07,0.7599999904632568,11990521856.0,17.046619002118053,224.0,0.00930692721158266,921600.0,2166.7968831062317,1.0240072678691092e-14,0.0,2.2940337657928467,-0.02294035255908966,0.04413742572069168,-0.022940337657928467,-1.4901161193847656e-08,0.0,0.01709023490548134,0.2966551184654236,0.8567330035544573,0.6544052362442017,0.7119199633598328,0.6714954376220703,0.7837522029876709,240.28225183486938,0.996936559677124,,,,,,,
4637100000.0,102.23,0.8600000143051147,12041169408.0,1890.6339376878404,225.0,0.0081403236836195,925696.0,2168.963352203369,9.995476668578362e-15,0.0,2.3000192642211914,-0.02300019934773445,0.09886978566646576,-0.023000191897153854,-7.450580596923828e-09,0.0,0.019936203956604004,0.4442863166332245,0.7500395474576189,0.41353118419647217,0.7409210801124573,0.43346741795539856,0.8886429667472839,2.166469097137451,0.9968850612640381,,,,,,,
4637100000.0,97.0,0.8199999928474426,12041169408.0,1809.8801439360811,226.0,0.0090708676725626,929792.0,2171.226485490799,1.0042314202429736e-14,0.0,2.3001883029937744,-0.023001879453659058,0.06212194636464119,-0.023001883178949356,3.725290298461914e-09,0.0,0.01700422167778015,0.35211506485939026,0.8338953761934749,0.5781434178352356,0.7324662804603577,0.5951476097106934,0.8639602065086365,2.2631332874298096,0.9969651699066162,,,,,,,
4637100000.0,93.08,0.9200000166893005,12041169408.0,1879.4392034530308,227.0,0.007216875907033682,933888.0,2173.4058589935303,9.579143034343929e-15,0.0,2.2999372482299805,-0.022999364882707596,0.024678196758031845,-0.022999372333288193,7.450580596923828e-09,0.0,0.01760103926062584,0.22149169445037842,0.9291174027198517,0.5592877864837646,0.7730550765991211,0.5768887996673584,0.8319315910339355,2.1793735027313232,0.9966163635253906,,,,,,,
4637100000.0,100.66,0.8899999856948853,12041169408.0,1895.7314582148033,228.0,0.01024661585688591,937984.0,2175.566502571106,1.0241807402167069e-14,0.0,2.2580065727233887,-0.022580044344067574,0.06366924196481705,-0.022580064833164215,2.0489096641540527e-08,0.0,0.05577439069747925,0.3525025248527527,0.8700410150183009,0.8758569955825806,0.8379994630813599,0.9316314458847046,0.9778203368186951,2.1606435775756836,0.9968037605285645,,,,,,,
4637100000.0,106.6,1.1799999475479126,12041169408.0,1893.032824094811,229.0,0.01211272832006216,942080.0,2177.730226278305,1.0109968417992832e-14,0.0,2.27565336227417,-0.02275652252137661,0.01610402762889862,-0.022756533697247505,1.1175870895385742e-08,0.0,0.0069738468155264854,0.17935238778591156,0.9432070011937826,0.5081050395965576,0.7324172854423523,0.5150788426399231,0.7525922656059265,2.1637237071990967,0.996673583984375,,,,,,,
4637100000.0,93.03,1.2100000381469727,12041169408.0,1859.2648298332244,230.0,0.011659601703286171,946176.0,2179.933247566223,9.879250195687916e-15,0.0,2.300100803375244,-0.02300100028514862,0.013346731662750244,-0.023001007735729218,7.450580596923828e-09,0.0,0.010593695566058159,0.16305743157863617,0.9595671446608447,0.6172077655792236,0.8184060454368591,0.6278014779090881,0.8109113574028015,2.203021287918091,0.9969065189361572,,,,,,,
4637100000.0,87.86,1.0800000429153442,12041169408.0,1839.8643142212313,231.0,0.01026723813265562,950272.0,2182.159498691559,9.435160985837854e-15,0.0,2.2718873023986816,-0.02271888591349125,0.030059270560741425,-0.022718872874975204,-1.30385160446167e-08,0.0,0.043798282742500305,0.24127674102783203,0.9419127769779941,0.9491884112358093,0.9448044896125793,0.9929866790771484,1.0010945796966553,2.2262511253356934,0.9969027042388916,,,,,,,
4637100000.0,100.04,1.159999966621399,12041169408.0,1879.8928807433053,232.0,0.01120366808027029,954368.0,2184.3383462429047,1.0475995071423938e-14,0.0,2.2487616539001465,-0.022487623617053032,0.03326026350259781,-0.022487616166472435,-7.450580596923828e-09,0.0,0.040889374911785126,0.2546849548816681,0.938845962760391,0.7711983919143677,0.965214729309082,0.8120877742767334,1.029889702796936,2.178847551345825,0.9970800876617432,,,,,,,
4637100000.0,99.07,1.0199999809265137,12041169408.0,1823.363469367048,233.0,0.009111577644944191,958464.0,2186.5847442150116,1.0443035325380379e-14,0.0,2.2808377742767334,-0.02280837669968605,0.029120253399014473,-0.02280837669968605,0.0,0.0,-0.04251900687813759,0.23758456110954285,0.9307359711575368,0.6129823327064514,0.8759384155273438,0.5704632997512817,0.9027433395385742,2.2463979721069336,0.9967615604400635,,,,,,,
4637100000.0,87.29,0.8999999761581421,12041169408.0,1870.0461695927088,234.0,0.011223726905882359,962560.0,2188.775064468384,1.0753550827580227e-14,0.0,2.2750542163848877,-0.02275053784251213,0.02804829180240631,-0.02275054156780243,3.725290298461914e-09,0.0,0.04841438680887222,0.23187445104122162,0.9582469308503507,1.018928050994873,1.0934085845947266,1.0673424005508423,1.1347720623016357,2.1903202533721924,0.9974215030670166,,,,,,,
4637100000.0,97.91,1.2100000381469727,12041169408.0,1808.5361645245666,235.0,0.013325119391083717,966656.0,2191.0398795604706,1.0472525624471984e-14,0.0,2.235558032989502,-0.02235558070242405,0.03744588792324066,-0.02235558070242405,0.0,0.0,0.018244421109557152,0.27308812737464905,0.9451092074138839,1.2025985717773438,1.122572422027588,1.2208428382873535,1.1656094789505005,2.264815092086792,0.9980862140655518,,,,,,,
4637100000.0,106.3,1.2100000381469727,12041169408.0,1792.3985222928395,236.0,0.005850194953382015,970752.0,2193.3250856399536,1.030078800035028e-14,0.0,2.289274215698242,-0.02289273589849472,0.07419481873512268,-0.022892741486430168,5.587935447692871e-09,0.0,-0.04665900021791458,0.3824242055416107,0.8953923041005205,0.8595045208930969,1.1325230598449707,0.8128454685211182,1.182397723197937,2.2852060794830322,0.9968822002410889,,,,,,,
4637100000.0,92.43,0.7900000214576721,12041169408.0,1879.983601340642,237.0,0.008665398694574833,974848.0,2195.503828048706,1.0672018824209317e-14,0.0,2.287890911102295,-0.02287890575826168,0.06899061053991318,-0.02287890948355198,3.725290298461914e-09,0.0,-0.007958510890603065,0.371418297290802,0.9243217910010442,1.0007669925689697,1.2862613201141357,0.9928084015846252,1.3501372337341309,2.1787424087524414,0.9965958595275879,,,,,,,
4637100000.0,86.72,0.6899999976158142,12041169408.0,1858.8335226624151,238.0,0.008436295203864574,978944.0,2197.7073605060577,9.981598880770548e-15,0.0,2.263336181640625,-0.022633356973528862,0.06219113618135452,-0.02263336069881916,3.725290298461914e-09,0.0,-0.04601946845650673,0.3497060537338257,0.9272779447741697,1.1119773387908936,1.2665376663208008,1.0659579038619995,1.2967913150787354,2.2035324573516846,0.9966025352478027,,,,,,,
4637100000.0,92.2,0.9100000262260437,12041169408.0,1851.652529906895,239.0,0.01007707230746746,983040.0,2199.91943860054,1.1183762249622475e-14,0.0,2.2161829471588135,-0.02216182090342045,0.07649292051792145,-0.022161828354001045,7.450580596923828e-09,0.0,-0.018958140164613724,0.39072203636169434,0.92422316990378,1.1860740184783936,1.340415358543396,1.1671159267425537,1.4193834066390991,2.212078094482422,0.9970941543579102,,,,,,,
4637100000.0,93.44,0.9399999976158142,12041169408.0,1842.5416268500899,240.0,0.01031736470758915,987136.0,2202.1424548625946,1.0717121634584714e-14,0.0,2.2420620918273926,-0.022420616820454597,0.02853550761938095,-0.022420620545744896,3.725290298461914e-09,0.0,0.004516481421887875,0.23888187110424042,0.9687096594434719,1.0869417190551758,1.300687313079834,1.0914583206176758,1.3504486083984375,2.2230162620544434,0.9966084957122803,,,,,,,
4637100000.0,96.17,0.9700000286102295,12041169408.0,1872.7461670545904,241.0,0.009618268348276615,991232.0,2204.3296172618866,1.1051923265448238e-14,0.0,2.1607284545898438,-0.0216072890907526,0.07132337242364883,-0.021607283502817154,-5.122274160385132e-09,0.0,-0.04131796956062317,0.3754650354385376,0.9385570452920441,1.5339365005493164,1.4066150188446045,1.4926186800003052,1.514723777770996,2.187162399291992,0.9966719150543213,,,,,,,
4637100000.0,102.96,1.1799999475479126,12041169408.0,1797.6928439455744,242.0,0.013135332614183426,995328.0,2206.6080932617188,1.1506420816154161e-14,0.0,2.196354627609253,-0.02196354605257511,0.04283224046230316,-0.02196354605257511,0.0,0.0,0.015314257703721523,0.29231971502304077,0.9628876773863798,1.4929782152175903,1.4412860870361328,1.5082924365997314,1.517396330833435,2.2784759998321533,0.9969003200531006,,,,,,,
4637100000.0,110.54,1.309999942779541,12041169408.0,1791.7165937476957,243.0,0.011497566476464272,999424.0,2208.8941690921783,1.1501216645726231e-14,0.0,2.1898915767669678,-0.0218989085406065,0.040432315319776535,-0.021898915991187096,7.450580596923828e-09,0.0,-0.005519820377230644,0.28434818983078003,0.9697250879830122,1.5657923221588135,1.5906989574432373,1.560272455215454,1.6342145204544067,2.2860758304595947,0.9967284202575684,,,,,,,
4637100000.0,109.25,1.350000023841858,12041169408.0,1886.3121738661646,244.0,0.012910693883895874,1003520.0,2211.065601825714,1.1983469772047783e-14,0.0,2.2213258743286133,-0.022213250398635864,0.04235841706395149,-0.02221325784921646,7.450580596923828e-09,0.0,0.00878892932087183,0.2909643352031708,0.9652208600304718,1.1668119430541992,1.5154211521148682,1.1756008863449097,1.5602004528045654,2.1714327335357666,0.9972765445709229,,,,,,,
4637100000.0,101.28,1.2200000286102295,12041169408.0,1809.8673692123834,245.0,0.007986052893102169,1007616.0,2213.3287510871887,1.2184697695261093e-14,0.0,2.1992125511169434,-0.021992117166519165,0.07547898590564728,-0.021992124617099762,7.450580596923828e-09,0.0,-0.051280222833156586,0.385181188583374,0.9414569322931631,1.2200002670288086,1.603062391281128,1.168720006942749,1.5919421911239624,2.2631492614746094,0.9968023300170898,,,,,,,
4637100000.0,87.63,0.8700000047683716,12041169408.0,1895.0175642330912,246.0,0.009400991722941399,1011712.0,2215.4902086257935,1.3395534681492904e-14,0.0,2.15130352973938,-0.021513035520911217,0.0865371823310852,-0.021513035520911217,0.0,0.0,-0.03875710070133209,0.41426339745521545,0.9392723413732034,1.149474859237671,1.619153618812561,1.1107177734375,1.6810603141784668,2.1614575386047363,0.9970622062683105,,,,,,,
4637100000.0,79.65,0.7599999904632568,12041169408.0,1852.0242071540424,247.0,0.008934509009122849,1015808.0,2217.7018427848816,1.2042450370230995e-14,0.0,2.1974704265594482,-0.0219747181981802,0.04152079299092293,-0.021974703297019005,-1.4901161193847656e-08,0.0,-0.026918860152363777,0.28694435954093933,0.9436462976330316,0.632394015789032,1.1838393211364746,0.6054751873016357,1.2087498903274536,2.2116341590881348,0.996549129486084,,,,,,,
4637100000.0,82.12,0.8600000143051147,12041169408.0,1840.4536489253296,248.0,0.011761085130274296,1019904.0,2219.9273810386658,1.2774503677093207e-14,0.0,2.178717613220215,-0.021787190809845924,0.0379309207201004,-0.02178717590868473,-1.4901161193847656e-08,0.0,0.009996780194342136,0.2752824127674103,0.9715874877383819,1.246746301651001,1.6061044931411743,1.25674307346344,1.633141040802002,2.2255382537841797,0.9970858097076416,,,,,,,
4637100000.0,83.61,1.0099999904632568,12041169408.0,1838.3703978593414,249.0,0.011764240451157093,1024000.0,2222.1554412841797,1.3282777655554412e-14,0.0,2.129746913909912,-0.021297452971339226,0.05973012000322342,-0.02129746787250042,1.4901161193847656e-08,0.0,0.013537382706999779,0.3454071581363678,0.9633469072926675,1.405144453048706,1.7426728010177612,1.4186818599700928,1.8041640520095825,2.228060245513916,0.9970893859863281,,,,,,,
4637100000.0,98.54,1.2100000381469727,12041169408.0,1878.152577335817,250.0,0.010591032914817333,1028096.0,2224.3363077640533,1.3249817909510853e-14,0.0,2.1648993492126465,-0.021648986265063286,0.05055534839630127,-0.021648993715643883,7.450580596923828e-09,0.0,-0.005470410920679569,0.3179708421230316,0.9668947696355366,1.3856550455093384,1.7098838090896606,1.3801846504211426,1.74758780002594,2.1808664798736572,0.9970457553863525,,,,,,,
4637100000.0,102.07,1.0499999523162842,12041169408.0,1820.4990371309395,251.0,0.007299503311514854,1032192.0,2226.5862402915955,1.3301859613790157e-14,0.0,2.1202645301818848,-0.02120264433324337,0.09361425787210464,-0.02120264433324337,0.0,0.0,-0.026688044890761375,0.43192800879478455,0.9497380470795721,1.6809195280075073,1.8273342847824097,1.6542315483093262,1.926600456237793,2.2499325275421143,0.9969091415405273,,,,,,,
4637100000.0,108.66,1.1799999475479126,12041169408.0,1874.3071321093294,252.0,0.013881885446608067,1036288.0,2228.771581172943,1.41588130109227e-14,0.0,2.1002626419067383,-0.02100263349711895,0.08757361769676208,-0.021002626046538353,-7.450580596923828e-09,0.0,-0.05503684654831886,0.41492193937301636,0.9334484902062969,1.0516886711120605,1.6193162202835083,0.9966518878936768,1.6083756685256958,2.1853408813476562,0.9967741966247559,,,,,,,
4637100000.0,93.45,1.0800000429153442,12041169408.0,1885.7866676062742,253.0,0.010358714498579502,1040384.0,2230.9436190128326,1.3456250003152093e-14,0.0,2.1511623859405518,-0.021511631086468697,0.037073828279972076,-0.0215116236358881,-7.450580596923828e-09,0.0,0.005715458188205957,0.2722738981246948,0.9706675042533065,0.9760497808456421,1.6065332889556885,0.9817652106285095,1.5897599458694458,2.1720378398895264,0.9968757629394531,,,,,,,
4637100000.0,87.92,1.059999942779541,12041169408.0,1828.2520929814805,254.0,0.012485167011618614,1044480.0,2233.1840102672577,1.35828848168984e-14,0.0,2.1348464488983154,-0.02134847827255726,0.033516936004161835,-0.021348463371396065,-1.4901161193847656e-08,0.0,0.021751124411821365,0.25802522897720337,0.9738746135143392,1.206252098083496,1.6190723180770874,1.2280032634735107,1.5963597297668457,2.240391254425049,0.9967312812805176,,,,,,,
4637100000.0,92.2,1.2000000476837158,12041169408.0,1834.3504037416762,255.0,0.012486806139349937,1048576.0,2235.4169533252716,1.3610640392514028e-14,0.0,2.1048154830932617,-0.021048150956630707,0.06038978695869446,-0.021048154681921005,3.725290298461914e-09,0.0,0.016139203682541847,0.34720098972320557,0.9626590796847198,1.562798023223877,1.7990962266921997,1.578937292098999,1.7967532873153687,2.232943058013916,0.9969186782836914,,,,,,,
,,,,,,,,,,,,,,,,,,,,,,,,,,0.023477276787161827,0.22312453389167786,0.2106955349445343,0.023477276787161827,0.22312453389167786,0.2106955349445343,
