CpuMaxMemory,EpLenMean,EpRewMean,GpuMaxMemory,IPS_total,Iter,Misc/FrameRewMean,Misc/InteractCount,Misc/TimeElapsed,Opt/approxkl,Opt/clipfrac,Opt/entropy,Opt/loss_pi,Opt/loss_vf,Opt/negent,Opt/pg,Opt/pi_kl,VFStats/AdvMean,VFStats/AdvStd,VFStats/EV,VFStats/VpredMean,VFStats/VpredStd,VFStats/VtargMean,VFStats/VtargStd,del_time,wait_optimization,scaled/pol_distance,scaled/vf_aux,scaled/vf_true,unscaled/pol_distance,unscaled/vf_aux,unscaled/vf_true,EvalEpMean
3043372000.0,80.33333333333333,-1.9333332777023315,11965495808.0,1685.2710878262467,0.0,-0.01122883427888155,4096.0,2.430469512939453,3.802513859341161e-15,0.0,2.7064437866210938,-0.027064435184001923,0.1600567102432251,-0.027064437046647072,1.862645149230957e-09,0.0,-0.16061027348041534,0.542576789855957,-0.0014000453957938586,0.02408219501376152,0.011174866929650307,-0.13652807474136353,0.5421974658966064,2.430469512939453,1.0256750583648682,,,,,,,
3094168000.0,85.61904761904762,-2.261904716491699,12031147008.0,1808.45982304328,1.0,-0.011915476061403751,8192.0,4.695380210876465,3.851086116668512e-15,0.0,2.7035484313964844,-0.027035491541028023,0.17129574716091156,-0.027035484090447426,-7.450580596923828e-09,0.0,-0.1278279721736908,0.5712540745735168,0.02146515423493034,-0.2653203308582306,0.04951504245400429,-0.3931483030319214,0.5774855613708496,2.2649106979370117,0.9971604347229004,,,,,,,
3143532000.0,89.62,-2.2699999809265137,12031147008.0,1817.1592955333822,2.0,-0.010370824486017227,12288.0,6.949447870254517,5.336009412104659e-15,0.0,2.687560558319092,-0.026875602081418037,0.16662158071994781,-0.026875605806708336,3.725290298461914e-09,0.0,-0.0042984820902347565,0.5773266553878784,0.035187728143842856,-0.7208656668663025,0.12960723042488098,-0.7251641750335693,0.5877602100372314,2.2540676593780518,0.9966957569122314,,,,,,,
3192636000.0,91.87,-2.4800000190734863,12031147008.0,1833.6598671664478,3.0,-0.016120675951242447,16384.0,9.183231830596924,6.189493362285248e-15,0.0,2.6755475997924805,-0.02675546333193779,0.2617757320404053,-0.026755474507808685,1.1175870895385742e-08,0.0,0.053532835096120834,0.7216735482215881,-0.0021285482661366206,-1.205418586730957,0.23016850650310516,-1.151885747909546,0.7209068536758423,2.2337839603424072,0.9968273639678955,,,,,,,
3242004000.0,82.54,-2.200000047683716,12031147008.0,1734.3323066573225,4.0,-0.00968923233449459,20480.0,11.544947624206543,6.9909356081865326e-15,0.0,2.6418614387512207,-0.026418613269925117,0.17549338936805725,-0.026418613269925117,0.0,0.0,0.1354890614748001,0.5768108367919922,-0.013485810180741575,-1.0090792179107666,0.17885722219944,-0.8735901713371277,0.5729603171348572,2.361715793609619,0.9979629516601562,,,,,,,
3291108000.0,76.92,-1.75,12031147008.0,1768.1957199663032,5.0,-0.01177954114973545,24576.0,13.861433267593384,6.271025365656158e-15,0.0,2.5583276748657227,-0.025583265349268913,0.16873911023139954,-0.02558327652513981,1.1175870895385742e-08,0.0,0.0068143028765916824,0.5809597373008728,0.02411961622684855,-0.643539547920227,0.09819935262203217,-0.6367253065109253,0.5880953073501587,2.316485643386841,0.9966650009155273,,,,,,,
3340212000.0,77.69,-2.140000104904175,12031147008.0,1804.8485012499564,6.0,-0.014480997808277607,28672.0,16.130875825881958,7.287573322578567e-15,0.0,2.526366949081421,-0.025263670831918716,0.17919203639030457,-0.025263668969273567,-1.862645149230957e-09,0.0,-0.07723964750766754,0.5937206149101257,-0.01619737022329648,-0.4383639097213745,0.06757838279008865,-0.5156035423278809,0.588969886302948,2.269442558288574,0.9970428943634033,,,,,,,
3389580000.0,79.11,-1.8899999856948853,12031147008.0,1788.7351499232807,7.0,-0.008381213992834091,32768.0,18.420762062072754,6.5416422279085396e-15,0.0,2.4270198345184326,-0.024270201101899147,0.1489953249692917,-0.02427019737660885,-3.725290298461914e-09,0.0,-0.044219523668289185,0.5441576838493347,0.016183191324581125,-0.37062519788742065,0.06256959587335587,-0.41484469175338745,0.5486149191856384,2.289886236190796,0.9967458248138428,,,,,,,
3438684000.0,79.5,-1.2699999809265137,12031147008.0,1813.18971354234,8.0,-0.0083536421880126,36864.0,20.67976450920105,7.589415207398531e-15,0.0,2.345187187194824,-0.023451875895261765,0.11373259127140045,-0.023451872169971466,-3.725290298461914e-09,0.0,-0.01332671009004116,0.4768051207065582,-0.004335138520084714,-0.35598671436309814,0.06172037497162819,-0.36931341886520386,0.47577494382858276,2.259002447128296,0.996586799621582,,,,,,,
3488052000.0,76.05,-1.690000057220459,12031147008.0,1768.1514981853152,9.0,-0.013867801055312157,40960.0,22.996308088302612,9.246076126956382e-15,0.0,2.163975715637207,-0.021639758720993996,0.16994687914848328,-0.021639756858348846,-1.862645149230957e-09,0.0,-0.08921767771244049,0.5762074589729309,-0.030629026193057074,-0.36087819933891296,0.0737212672829628,-0.45009586215019226,0.5675808191299438,2.3165435791015625,0.9964251518249512,,,,,,,
3537156000.0,77.41,-2.059999942779541,12031147008.0,1801.337317974946,10.0,-0.011230029165744781,45056.0,25.270174264907837,1.260970494687541e-14,0.0,1.962998628616333,-0.019629985094070435,0.12867853045463562,-0.019629985094070435,0.0,0.0,-0.006399880163371563,0.507325291633606,0.019505185623648225,-0.39536580443382263,0.08197200298309326,-0.40176570415496826,0.512346625328064,2.2738661766052246,0.9967246055603027,,,,,,,
3586260000.0,74.23,-1.8600000143051147,12031147008.0,1800.11066720384,11.0,-0.011737613007426262,49152.0,27.545589923858643,1.919471526168337e-14,0.0,1.6150617599487305,-0.01615062542259693,0.13883033394813538,-0.016150617972016335,-7.450580596923828e-09,0.0,-0.031012052670121193,0.5260859727859497,0.021672574012639667,-0.4668394923210144,0.11089299619197845,-0.49785155057907104,0.5318812131881714,2.2754156589508057,0.9966261386871338,,,,,,,
3635628000.0,74.73,-1.5099999904632568,12031147008.0,1760.2330394158932,12.0,-0.008282752707600594,53248.0,29.872554540634155,2.01574867908505e-14,0.0,1.0202462673187256,-0.010202455334365368,0.12026703357696533,-0.010202462784945965,7.450580596923828e-09,0.0,0.05815143883228302,0.48704245686531067,-0.004871880287508068,-0.5689936876296997,0.14206823706626892,-0.5108422040939331,0.4858604073524475,2.3269646167755127,0.9964914321899414,,,,,,,
3684732000.0,77.88,-1.399999976158142,12031147008.0,1782.201787443743,13.0,-0.00988042913377285,57344.0,32.17083525657654,1.9491352976075405e-14,0.0,0.5948419570922852,-0.005948424804955721,0.1260865032672882,-0.005948419217020273,-5.587935447692871e-09,0.0,-0.03998076170682907,0.5006353259086609,0.07154195835266464,-0.5029474496841431,0.13165590167045593,-0.5429282188415527,0.5195655226707458,2.298280715942383,0.9967954158782959,,,,,,,
3733836000.0,82.49,-1.7699999809265137,12031147008.0,1734.363822227768,14.0,-0.010798192583024502,61440.0,34.53250813484192,4.02247679609502e-14,0.0,0.6691368222236633,-0.006691368296742439,0.15035976469516754,-0.006691368296742439,0.0,0.0,-0.03349801152944565,0.5474217534065247,0.0893636316991272,-0.5455960035324097,0.10799632966518402,-0.5790939927101135,0.5736533403396606,2.361672878265381,0.9968786239624023,,,,,,,
3783204000.0,86.6,-2.009999990463257,12031147008.0,1772.2774479175478,15.0,-0.012142266146838665,65536.0,36.843658685684204,8.240630400280224e-14,0.0,0.9641311764717102,-0.009641329757869244,0.16559480130672455,-0.009641311131417751,-1.862645149230957e-08,0.0,-0.020691804587841034,0.5751888155937195,0.08211159460497208,-0.6068808436393738,0.14954446256160736,-0.6275726556777954,0.6003652811050415,2.311150550842285,0.9970052242279053,,,,,,,
3832308000.0,83.34,-1.4800000190734863,12031147008.0,1803.9223517866476,16.0,-0.00631596939638257,69632.0,39.11426639556885,1.1666362320639223e-13,0.0,1.1271237134933472,-0.011271242052316666,0.10737596452236176,-0.011271236464381218,-5.587935447692871e-09,0.0,0.0846661627292633,0.4556690454483032,0.08093341022370215,-0.706305205821991,0.16143816709518433,-0.62163907289505,0.4753090441226959,2.2706077098846436,0.9968030452728271,,,,,,,
3881676000.0,80.46,-0.8999999761581421,12031147008.0,1796.996731595784,17.0,-0.007356930524110794,73728.0,41.393625020980835,9.828249325494198e-14,0.0,0.9155360460281372,-0.00915536005049944,0.12049711495637894,-0.00915536005049944,0.0,0.0,0.04862704500555992,0.48855698108673096,0.03788132246942355,-0.6169916987419128,0.14236587285995483,-0.5683646202087402,0.4980820417404175,2.2793586254119873,0.9968082904815674,,,,,,,
3930780000.0,78.08,-1.440000057220459,12031147008.0,1774.1649649320923,18.0,-0.012822641991078854,77824.0,43.702316761016846,9.846290449644357e-14,0.0,1.0774201154708862,-0.010774211958050728,0.13151608407497406,-0.010774200782179832,-1.1175870895385742e-08,0.0,-0.007389846257865429,0.5128759741783142,-0.00335132397874105,-0.5244866013526917,0.14753539860248566,-0.5318764448165894,0.5120187997817993,2.3086917400360107,0.996781587600708,,,,,,,
3979884000.0,76.63,-1.7100000381469727,12031147008.0,1793.7345340378859,19.0,-0.0070708319544792175,81920.0,45.98582077026367,9.016398738737053e-14,0.0,1.1377097368240356,-0.01137711200863123,0.11542496085166931,-0.011377097107470036,-1.4901161193847656e-08,0.0,-0.01470264419913292,0.480302095413208,0.05437711690985225,-0.4137767553329468,0.1101975366473198,-0.4284793734550476,0.4939187169075012,2.283504009246826,0.9970993995666504,,,,,,,
4029252000.0,75.94,-1.0199999809265137,12031147008.0,1781.5937342177904,20.0,-0.008429333567619324,86016.0,48.2848858833313,6.399047958183246e-14,0.0,1.124574065208435,-0.011245734989643097,0.12843260169029236,-0.011245740577578545,5.122274160385132e-09,0.0,0.012705679051578045,0.5067212581634521,-0.01903020698485869,-0.3574731945991516,0.08254300057888031,-0.3447675108909607,0.5019675493240356,2.299065113067627,0.9969780445098877,,,,,,,
4078356000.0,75.09,-1.0399999618530273,12031147008.0,1814.6322351485533,21.0,-0.00613264599815011,90112.0,50.5420925617218,4.370809270071163e-14,0.0,1.162083387374878,-0.011620837263762951,0.07837183773517609,-0.011620833538472652,-3.725290298461914e-09,0.0,0.014671724289655685,0.39568501710891724,-0.0495125218797734,-0.31299424171447754,0.07134904712438583,-0.29832252860069275,0.3862387239933014,2.257206678390503,0.9966537952423096,,,,,,,
4127460000.0,76.72,-1.2200000286102295,12031147008.0,1745.6681528668246,22.0,-0.008634811267256737,94208.0,52.88847208023071,3.264749581788351e-14,0.0,1.2117247581481934,-0.012117242440581322,0.13233226537704468,-0.012117247097194195,4.190951585769653e-09,0.0,-0.05352663993835449,0.5117258429527283,0.006933726693552855,-0.26084691286087036,0.057714659720659256,-0.31437355279922485,0.513509213924408,2.346379518508911,0.9969675540924072,,,,,,,
4176828000.0,75.56,-1.5800000429153442,12031147008.0,1799.7459577429422,23.0,-0.010049797594547272,98304.0,55.1643488407135,3.0205005163708165e-14,0.0,1.2567806243896484,-0.012567817233502865,0.11916616559028625,-0.01256780605763197,-1.1175870895385742e-08,0.0,-0.06052108854055405,0.4844861626625061,0.007042329072650122,-0.22047479450702667,0.03594719246029854,-0.2809958755970001,0.4862011671066284,2.275876760482788,0.9967131614685059,,,,,,,
4225932000.0,75.55,-1.440000057220459,12031147008.0,1773.2002972971495,24.0,-0.00848454050719738,102400.0,57.47429656982422,2.771394225220547e-14,0.0,1.2698283195495605,-0.012698286212980747,0.1038384735584259,-0.012698282487690449,-3.725290298461914e-09,0.0,-0.06209980696439743,0.45151999592781067,0.001383148444904836,-0.22258910536766052,0.043470147997140884,-0.28468891978263855,0.4518326222896576,2.3099477291107178,0.9968764781951904,,,,,,,
4275300000.0,76.09,-0.8399999737739563,12031147008.0,1790.4167976140377,25.0,-0.0038308617658913136,106496.0,59.76203203201294,2.3689383787939278e-14,0.0,1.3476810455322266,-0.013476801104843616,0.06097672879695892,-0.013476810418069363,9.313225746154785e-09,0.0,0.01463017426431179,0.34895434975624084,0.0357064923596383,-0.22581638395786285,0.03473713621497154,-0.2111862152814865,0.35535627603530884,2.2877354621887207,0.996652364730835,,,,,,,
4324404000.0,76.34,-0.9300000071525574,12031147008.0,1736.513959485143,26.0,-0.008090182207524776,110592.0,62.12078070640564,2.0997092953223273e-14,0.0,1.421170949935913,-0.01421170961111784,0.09403959661722183,-0.01421170961111784,0.0,0.0,-0.03072362020611763,0.4326441287994385,-0.005483245138966808,-0.23399043083190918,0.03871152922511101,-0.2647140324115753,0.4314628541469574,2.3587486743927,0.9960486888885498,,,,,,,
4373656000.0,73.24,-1.1799999475479126,12031147008.0,1813.3807177474641,27.0,-0.008520254865288734,114688.0,64.37954521179199,1.8986548444566154e-14,0.0,1.4862885475158691,-0.014862886629998684,0.09493815898895264,-0.014862884767353535,-1.862645149230957e-09,0.0,-0.020979296416044235,0.43529582023620605,0.01744227456900449,-0.2489033341407776,0.036859698593616486,-0.2698826193809509,0.43914249539375305,2.2587645053863525,0.9969453811645508,,,,,,,
4422856000.0,74.87,-1.1799999475479126,12031147008.0,1775.9511214834247,28.0,-0.008288992568850517,118784.0,66.68591499328613,1.5317608292875207e-14,0.0,1.6787995100021362,-0.016787990927696228,0.12066944688558578,-0.016787994652986526,3.725290298461914e-09,0.0,-0.04049306362867355,0.4896506667137146,0.018247847284366125,-0.25894972681999207,0.034345366060733795,-0.2994428277015686,0.4941803216934204,2.3063697814941406,0.9966557025909424,,,,,,,
4472056000.0,75.99,-1.100000023841858,12031147008.0,1775.1402205096385,29.0,-0.007412804290652275,122880.0,68.99333834648132,1.1641729247280352e-14,0.0,1.8116050958633423,-0.018116053193807602,0.09995870292186737,-0.018116051331162453,-9.313225746154785e-10,0.0,-0.018463948741555214,0.44679439067840576,0.0028278048003247402,-0.3007085919380188,0.039652954787015915,-0.31917256116867065,0.4474274516105652,2.3074233531951904,0.996861457824707,,,,,,,
4521256000.0,76.43,-1.1699999570846558,12031147008.0,1806.2434029296062,30.0,-0.010544044896960258,126976.0,71.26102828979492,7.925951561738032e-15,0.0,2.033712148666382,-0.020337121561169624,0.13564395904541016,-0.020337121561169624,0.0,0.0,-0.05187235400080681,0.5183268785476685,0.01574829613970896,-0.3381376564502716,0.04074710234999657,-0.3900099992752075,0.5224571228027344,2.2676899433135986,0.9967305660247803,,,,,,,
4570456000.0,75.37,-1.4600000381469727,12031147008.0,1788.0688463787376,31.0,-0.010153227485716343,131072.0,73.55176782608032,7.219919107015471e-15,0.0,2.1509461402893066,-0.021509455516934395,0.1291307955980301,-0.021509461104869843,5.587935447692871e-09,0.0,-0.009776394814252853,0.5081624388694763,0.006348751911781525,-0.4020964503288269,0.048360537737607956,-0.41187286376953125,0.5097833275794983,2.2907395362854004,0.9964430332183838,,,,,,,
,,,,,,,,,,,,,,,,,,,,,,,,,,0.003013749374076724,0.1573626548051834,0.1511746197938919,0.003013749374076724,0.1573626548051834,0.1511746197938919,
,,,,,,,,,,,,,,,,,,,,,,,,,,0.0012245364487171173,0.13799892365932465,0.13267146050930023,0.0012245364487171173,0.13799892365932465,0.13267146050930023,
,,,,,,,,,,,,,,,,,,,,,,,,,,0.001504099927842617,0.12140998989343643,0.11564688384532928,0.001504099927842617,0.12140998989343643,0.11564688384532928,
,,,,,,,,,,,,,,,,,,,,,,,,,,0.0021421543788164854,0.11178173124790192,0.10694476217031479,0.0021421543788164854,0.11178173124790192,0.10694476217031479,
,,,,,,,,,,,,,,,,,,,,,,,,,,0.002831129590049386,0.09707324951887131,0.0955781415104866,0.002831129590049386,0.09707324951887131,0.0955781415104866,
,,,,,,,,,,,,,,,,,,,,,,,,,,0.0024612685665488243,0.08923327922821045,0.09041761606931686,0.0024612685665488243,0.08923327922821045,0.09041761606931686,
,,,,,,,,,,,,,,,,,,,,,,,,,,,,,,,,-0.93
4587128000.0,74.82,-1.309999942779541,11990518784.0,17.030274739777553,32.0,-0.0075675141997635365,135168.0,314.0646228790283,4.503342143635791e-15,0.0,2.3341572284698486,-0.023341579362750053,0.09310770779848099,-0.023341571912169456,-7.450580596923828e-09,0.0,0.0652165412902832,0.4266223907470703,0.4697571832305536,-0.5005932450294495,0.32689526677131653,-0.43537670373916626,0.5858767032623291,240.512855052948,0.9969027042388916,,,,,,,
4587128000.0,78.32,-1.2599999904632568,12041169408.0,1792.6470841611433,33.0,-0.00758465938270092,139264.0,316.3495121002197,4.657732532997727e-15,0.0,2.3086891174316406,-0.023086875677108765,0.1081136167049408,-0.02308689057826996,1.4901161193847656e-08,0.0,0.05771349370479584,0.4614633023738861,0.5104055799165887,-0.520447850227356,0.3619641363620758,-0.4627343416213989,0.6595062613487244,2.2848892211914062,0.9969124794006348,,,,,,,
4587128000.0,80.04,-0.9599999785423279,12041169408.0,1819.522650634693,34.0,-0.006928986869752407,143360.0,318.6006519794464,4.602221381766469e-15,0.0,2.3184256553649902,-0.02318425104022026,0.10148085653781891,-0.02318425662815571,5.587935447692871e-09,0.0,0.07213399559259415,0.4447546601295471,0.5878905936456421,-0.4990886449813843,0.3997188210487366,-0.4269546568393707,0.69281005859375,2.2511398792266846,0.9969356060028076,,,,,,,
4587128000.0,78.18,-1.3300000429153442,12041169408.0,1797.8476715393106,35.0,-0.009672668762505054,147456.0,320.87893176078796,4.040170975549984e-15,0.0,2.3036394119262695,-0.02303639054298401,0.10960182547569275,-0.023036394268274307,3.725290298461914e-09,0.0,0.002906523644924164,0.46824002265930176,0.5670298485961647,-0.5352133512496948,0.42561814188957214,-0.5323068499565125,0.7116059064865112,2.2782797813415527,0.9968817234039307,,,,,,,
4587128000.0,78.61,-1.6299999952316284,12041169408.0,1775.2910041351781,36.0,-0.011238458566367626,151552.0,323.18615913391113,4.6178338930502605e-15,0.0,2.3298134803771973,-0.023298140615224838,0.1040571928024292,-0.02329813502728939,-5.587935447692871e-09,0.0,0.03312854841351509,0.4550466537475586,0.6169976307650233,-0.5302505493164062,0.4746813476085663,-0.49712198972702026,0.735284149646759,2.307227373123169,0.9967961311340332,,,,,,,
4587128000.0,77.12,-1.7300000190734863,12041169408.0,1773.2951061120827,37.0,-0.011085979640483856,155648.0,325.4959833621979,4.6091602756703764e-15,0.0,2.35908842086792,-0.02359088696539402,0.12966176867485046,-0.02359088324010372,-3.725290298461914e-09,0.0,0.05401883274316788,0.5064268112182617,0.5450809292268823,-0.57631516456604,0.5204265713691711,-0.5222963690757751,0.7508438229560852,2.309824228286743,0.9967520236968994,,,,,,,
4587128000.0,77.25,-1.6799999475479126,12041169408.0,1808.49275760507,38.0,-0.009757447987794876,159744.0,327.7608528137207,4.697631172945194e-15,0.0,2.4167017936706543,-0.024167025461792946,0.11474621295928955,-0.02416701801121235,-7.450580596923828e-09,0.0,0.08275393396615982,0.4719094932079315,0.6941653124282487,-0.5965937376022339,0.6810093522071838,-0.5138397216796875,0.8533267974853516,2.264869451522827,0.996985912322998,,,,,,,
4587128000.0,77.6,-1.5,12041169408.0,1833.7166254361914,39.0,-0.010810738429427147,163840.0,329.99456763267517,4.2223169405275485e-15,0.0,2.423111915588379,-0.024231111630797386,0.10468266904354095,-0.024231119081377983,7.450580596923828e-09,0.0,0.07753551006317139,0.4510025084018707,0.6602882139096504,-0.5627870559692383,0.6609899997711182,-0.4852514863014221,0.7737908959388733,2.2337148189544678,0.9970846176147461,,,,,,,
4587128000.0,73.14,-0.9599999785423279,12041169408.0,1678.42788376476,40.0,-0.0053474185988307,167936.0,332.4349465370178,4.354155924701786e-15,0.0,2.415158748626709,-0.024151597172021866,0.11996609717607498,-0.02415158785879612,-9.313225746154785e-09,0.0,0.10076281428337097,0.4794112741947174,0.566877039404349,-0.5223235487937927,0.5515075325965881,-0.42156076431274414,0.7284548878669739,2.4403789043426514,0.9970760345458984,,,,,,,
4587128000.0,76.13,-1.649999976158142,12041169408.0,1828.7654849075668,41.0,-0.018999677151441574,172032.0,334.6747088432312,4.232725281383409e-15,0.0,2.4309945106506348,-0.024309946224093437,0.14222052693367004,-0.024309944361448288,-1.862645149230957e-09,0.0,-0.0524701252579689,0.530807614326477,0.5379143546592682,-0.44583195447921753,0.5602747201919556,-0.49830207228660583,0.780864953994751,2.239762306213379,0.9966175556182861,,,,,,,
4587128000.0,76.89,-2.180000066757202,12041169408.0,1818.7325141775937,42.0,-0.013635667972266674,176128.0,336.92682671546936,4.583139423530724e-15,0.0,2.4313032627105713,-0.02431304380297661,0.1504647135734558,-0.024313032627105713,-1.1175870895385742e-08,0.0,-0.07752212882041931,0.5431314706802368,0.5312925371451391,-0.3882388472557068,0.5111836791038513,-0.4657609462738037,0.793330192565918,2.252117872238159,0.9980523586273193,,,,,,,
4587128000.0,74.2,-1.9500000476837158,12041169408.0,1800.056913245607,43.0,-0.013470489531755447,180224.0,339.2023103237152,4.066191827689636e-15,0.0,2.4266357421875,-0.024266356602311134,0.0954662635922432,-0.024266356602311134,0.0,0.0,0.0012778714299201965,0.4370097517967224,0.6677032729555945,-0.36156898736953735,0.5441004633903503,-0.36029112339019775,0.7581028342247009,2.2754836082458496,0.9968905448913574,,,,,,,
4587128000.0,71.59,-2.0799999237060547,12041169408.0,1764.3661044409987,44.0,-0.016618862748146057,184320.0,341.5238239765167,4.562322741819003e-15,0.0,2.398942470550537,-0.023989424109458923,0.14901570975780487,-0.023989424109458923,0.0,0.0,-0.04853314906358719,0.5438273549079895,0.6557261636733682,-0.47737911343574524,0.6349536180496216,-0.5259122848510742,0.9268491268157959,2.3215136528015137,0.9969449043273926,,,,,,,
4587128000.0,74.19,-1.7799999713897705,12041169408.0,1811.7840665982303,45.0,-0.0083850072696805,188416.0,343.78457903862,4.246603069191224e-15,0.0,2.3404293060302734,-0.02340429276227951,0.0858771950006485,-0.02340429276227951,0.0,0.0,0.055925507098436356,0.4106919765472412,0.639743669560129,-0.4097684621810913,0.5454587936401367,-0.35384294390678406,0.6842430233955383,2.2607550621032715,0.9967334270477295,,,,,,,
4587128000.0,75.73,-1.100000023841858,12041169408.0,1799.4124930033952,46.0,-0.00801569502800703,192512.0,346.0608775615692,4.4998726966838376e-15,0.0,2.283641815185547,-0.02283642813563347,0.09821408987045288,-0.022836416959762573,-1.1175870895385742e-08,0.0,0.07459235936403275,0.43693336844444275,0.661808052371173,-0.4347621500492096,0.6753517985343933,-0.36016976833343506,0.7513348460197449,2.2762985229492188,0.9965753555297852,,,,,,,
4587128000.0,75.24,-1.25,12041169408.0,1800.3940130469825,47.0,-0.008531922474503517,196608.0,348.3359351158142,4.6455894686658894e-15,0.0,2.190542459487915,-0.02190541848540306,0.10943356156349182,-0.02190542407333851,5.587935447692871e-09,0.0,0.06315240263938904,0.46360689401626587,0.5518922878735841,-0.35652878880500793,0.6350867748260498,-0.2933763563632965,0.6925621032714844,2.275057554244995,0.9968070983886719,,,,,,,
4587128000.0,74.81,-0.7799999713897705,12041169408.0,1797.2676285783211,48.0,-0.0024669929407536983,200704.0,350.6149501800537,5.8945903713691905e-15,0.0,2.08559250831604,-0.020855914801359177,0.05323873087763786,-0.020855924114584923,9.313225746154785e-09,0.0,0.06757955253124237,0.3192731440067291,0.6922483469441862,-0.25095823407173157,0.4919390082359314,-0.1833786815404892,0.5755224227905273,2.279015064239502,0.9969768524169922,,,,,,,
4587128000.0,77.96,-0.8199999928474426,12041169408.0,1756.0431838634145,49.0,-0.009361665695905685,204800.0,352.94746685028076,6.5416422279085396e-15,0.0,1.9463167190551758,-0.019463174045085907,0.1038372591137886,-0.01946316659450531,-6.51925802230835e-09,0.0,-0.004365983884781599,0.45574793219566345,0.6644654533990524,-0.292679101228714,0.6458843350410461,-0.2970450818538666,0.7867850661277771,2.332516670227051,0.996800422668457,,,,,,,
4587128000.0,75.41,-1.5099999904632568,12041169408.0,1820.1663233610486,50.0,-0.0106818787753582,208896.0,355.1978106498718,7.251144129583054e-15,0.0,1.808887243270874,-0.01808887906372547,0.07688578963279724,-0.018088871613144875,-7.450580596923828e-09,0.0,-0.027963614091277122,0.3911866247653961,0.6583191225261783,-0.25430798530578613,0.554023802280426,-0.2822715640068054,0.6692273020744324,2.2503437995910645,0.9969756603240967,,,,,,,
4587128000.0,71.98,-1.6100000143051147,12041169408.0,1807.5122785517572,51.0,-0.01280349213629961,212992.0,357.46390867233276,9.237402509576498e-15,0.0,1.6962778568267822,-0.016962779685854912,0.07466578483581543,-0.016962777823209763,-1.862645149230957e-09,0.0,-0.05806117504835129,0.3820943832397461,0.6172732900778329,-0.14853903651237488,0.44587501883506775,-0.20660021901130676,0.6176270246505737,2.2660980224609375,0.9963810443878174,,,,,,,
4587128000.0,72.48,-1.2000000476837158,12041169408.0,1782.5375958510344,52.0,-0.006025676615536213,217088.0,359.7617564201355,9.38832345198648e-15,0.0,1.618102788925171,-0.01618102751672268,0.06543615460395813,-0.01618102751672268,0.0,0.0,0.003680070862174034,0.36178824305534363,0.6595374445519695,-0.15636765956878662,0.48770222067832947,-0.15268757939338684,0.6200401186943054,2.2978477478027344,0.996962308883667,,,,,,,
4587128000.0,71.51,-0.9300000071525574,12041169408.0,1814.132302149309,53.0,-0.009455510415136814,221184.0,362.0195851325989,9.896597430447684e-15,0.0,1.581786870956421,-0.01581786759197712,0.05564303696155548,-0.01581786759197712,0.0,0.0,-0.010964952409267426,0.3334561288356781,0.724401138352673,-0.22351157665252686,0.4985814094543457,-0.23447653651237488,0.6351847052574158,2.257828712463379,0.9971702098846436,,,,,,,
4587128000.0,71.38,-0.9599999785423279,12041169408.0,1715.0748927396173,54.0,-0.005531817674636841,225280.0,364.40781903266907,9.896597430447684e-15,0.0,1.5993430614471436,-0.015993425622582436,0.055257752537727356,-0.015993429347872734,3.725290298461914e-09,0.0,0.01174432784318924,0.3322717547416687,0.5983621599469743,-0.1290271133184433,0.407116562128067,-0.11728279292583466,0.5242955088615417,2.3882339000701904,0.9970810413360596,,,,,,,
4587128000.0,72.93,-0.9800000190734863,12041169408.0,1847.4125794054728,55.0,-0.011211161501705647,229376.0,366.6249740123749,1.2085818457130415e-14,0.0,1.5498948097229004,-0.015498939901590347,0.06759734451770782,-0.015498947352170944,7.450580596923828e-09,0.0,-0.036096833646297455,0.3659568130970001,0.7637623683990256,-0.2534659504890442,0.5831907391548157,-0.28956279158592224,0.7529312372207642,2.2171549797058105,0.9970390796661377,,,,,,,
4587128000.0,74.88,-1.2699999809265137,12041169408.0,1832.2314994134788,56.0,-0.004495872184634209,233472.0,368.86049938201904,1.1494277751822324e-14,0.0,1.5188484191894531,-0.015188472345471382,0.054773181676864624,-0.015188483521342278,1.1175870895385742e-08,0.0,0.025511547923088074,0.3300335109233856,0.644910249479655,-0.15911871194839478,0.4557945132255554,-0.1336071491241455,0.5538459420204163,2.235525369644165,0.9967625141143799,,,,,,,
4587128000.0,74.63,-0.5699999928474426,12041169408.0,1761.6150774070634,57.0,-0.0033225473016500473,237568.0,371.1856384277344,1.2944506577738935e-14,0.0,1.4899859428405762,-0.014899861067533493,0.038405511528253555,-0.014899859204888344,-1.862645149230957e-09,0.0,0.001343404408544302,0.2771785855293274,0.7107395834974286,-0.09744977205991745,0.42090535163879395,-0.09610636532306671,0.5153653025627136,2.325139045715332,0.9970386028289795,,,,,,,
4587128000.0,76.47,-1.0700000524520874,12041169408.0,1801.4289261147424,58.0,-0.013660682365298271,241664.0,373.45938897132874,1.3941972576425599e-14,0.0,1.4848421812057495,-0.014848432503640652,0.07012529671192169,-0.014848421327769756,-1.1175870895385742e-08,0.0,-0.06650014966726303,0.3685939311981201,0.806010402669049,-0.23676276206970215,0.6390259265899658,-0.3032628893852234,0.8368719220161438,2.2737505435943604,0.996769905090332,,,,,,,
4587128000.0,76.9,-1.6699999570846558,12041169408.0,1846.5013835430761,59.0,-0.008627120405435562,245760.0,375.67763805389404,1.2746748101477579e-14,0.0,1.5212335586547852,-0.015212330035865307,0.0497937873005867,-0.015212335623800755,5.587935447692871e-09,0.0,-0.02481323480606079,0.31463637948036194,0.851108011555472,-0.27581751346588135,0.7016324996948242,-0.30063074827194214,0.8154047727584839,2.2182490825653076,0.9962260723114014,,,,,,,
4587128000.0,74.16,-1.159999966621399,12041169408.0,1802.1124090335402,60.0,-0.007455133367329836,249856.0,377.9505262374878,1.2918485725599282e-14,0.0,1.4827024936676025,-0.01482701301574707,0.0630226656794548,-0.014827024191617966,1.1175870895385742e-08,0.0,0.015041934326291084,0.35475316643714905,0.7415295982782597,-0.286659300327301,0.5925989747047424,-0.2716173529624939,0.6977837681770325,2.27288818359375,0.9969110488891602,,,,,,,
4587128000.0,74.61,-0.8600000143051147,12041169408.0,1771.1660004468156,61.0,-0.005207281094044447,253952.0,380.26312708854675,1.4105036583167418e-14,0.0,1.4743586778640747,-0.014743582345545292,0.04406246542930603,-0.01474358607083559,3.725290298461914e-09,0.0,0.012085196562111378,0.2966485619544983,0.7048392429963977,-0.16409914195537567,0.4596554636955261,-0.15201395750045776,0.5460255146026611,2.31260085105896,0.9970979690551758,,,,,,,
4587128000.0,78.57,-0.7599999904632568,12041169408.0,1786.315449282032,62.0,-0.006424121558666229,258048.0,382.55611515045166,1.263225635206311e-14,0.0,1.5102286338806152,-0.015102289617061615,0.0582469217479229,-0.015102285891771317,-4.190951585769653e-09,0.0,0.019582878798246384,0.3407913148403168,0.8226440661144934,-0.27626460790634155,0.7665513157844543,-0.25668174028396606,0.8092181086540222,2.2929880619049072,0.9970085620880127,,,,,,,
4587128000.0,78.34,-0.8899999856948853,12041169408.0,1829.7584449107512,63.0,-0.0038968650624156,262144.0,384.7946619987488,1.3902073936478132e-14,0.0,1.5078239440917969,-0.015078235417604446,0.05666597560048103,-0.015078239142894745,3.725290298461914e-09,0.0,0.021603072062134743,0.33599525690078735,0.814721367351443,-0.3083847165107727,0.7281195521354675,-0.2867816090583801,0.780585527420044,2.238546848297119,0.9969344139099121,,,,,,,
,,,,,,,,,,,,,,,,,,,,,,,,,,0.008763600140810013,0.12133627384901047,0.09364592283964157,0.008763600140810013,0.12133627384901047,0.09364592283964157,
,,,,,,,,,,,,,,,,,,,,,,,,,,0.0032588846515864134,0.08269020915031433,0.07570923119783401,0.0032588846515864134,0.08269020915031433,0.07570923119783401,
,,,,,,,,,,,,,,,,,,,,,,,,,,0.0026545501314103603,0.07447712868452072,0.06791027635335922,0.0026545501314103603,0.07447712868452072,0.06791027635335922,
,,,,,,,,,,,,,,,,,,,,,,,,,,0.0026456238701939583,0.06936859339475632,0.06329724937677383,0.0026456238701939583,0.06936859339475632,0.06329724937677383,
,,,,,,,,,,,,,,,,,,,,,,,,,,0.0020860503427684307,0.06292203813791275,0.057934850454330444,0.0020860503427684307,0.06292203813791275,0.057934850454330444,
,,,,,,,,,,,,,,,,,,,,,,,,,,0.0022914435248821974,0.06290794909000397,0.05862169340252876,0.0022914435248821974,0.06290794909000397,0.05862169340252876,
,,,,,,,,,,,,,,,,,,,,,,,,,,,,,,,,-1.2
4600980000.0,80.51,-0.4000000059604645,11990521856.0,17.02800058459018,64.0,-0.002293831668794155,266240.0,625.3396384716034,7.376044219853384e-15,0.0,1.5844470262527466,-0.015844468027353287,0.028266912326216698,-0.015844469889998436,1.862645149230957e-09,0.0,0.05643023923039436,0.23100320994853973,0.8077613624298776,-0.22078445553779602,0.520722508430481,-0.16435420513153076,0.5268629193305969,240.54497647285461,0.996380090713501,,,,,,,
4600980000.0,77.26,-0.5099999904632568,12041169408.0,1777.7417979046081,65.0,-0.0058263083919882774,270336.0,627.6436851024628,7.245939959155123e-15,0.0,1.6118512153625488,-0.016118498519062996,0.042768485844135284,-0.01611851155757904,1.30385160446167e-08,0.0,0.015462595969438553,0.2920936644077301,0.7887095519815258,-0.24975144863128662,0.5532378554344177,-0.23428887128829956,0.6354511976242065,2.304046630859375,0.9962575435638428,,,,,,,
4600980000.0,76.32,-0.6600000262260437,12041169408.0,1800.6366823089872,66.0,-0.0050285980105400085,274432.0,629.918436050415,7.053385653321698e-15,0.0,1.6437649726867676,-0.016437649726867676,0.03601405397057533,-0.016437649726867676,0.0,0.0,0.016572846099734306,0.2679010331630707,0.8438626819370767,-0.2502427101135254,0.5895622372627258,-0.23366986215114594,0.6779865026473999,2.2747509479522705,0.9960541725158691,,,,,,,
4600980000.0,74.94,-0.8999999761581421,12041169408.0,1796.2506363773427,67.0,-0.008585020899772644,278528.0,632.1987414360046,7.365635878997523e-15,0.0,1.6451137065887451,-0.01645113155245781,0.04038781672716141,-0.016451137140393257,4.6566128730773926e-09,0.0,0.021599609404802322,0.28342318534851074,0.8728890682209232,-0.34186869859695435,0.6963322162628174,-0.3202691078186035,0.7949575185775757,2.2803053855895996,0.9965052604675293,,,,,,,
4600980000.0,72.65,-1.149999976158142,12041169408.0,1803.5657526500966,68.0,-0.010100282728672028,282624.0,634.4697980880737,6.480926906249351e-15,0.0,1.6957736015319824,-0.016957741230726242,0.042355477809906006,-0.016957735642790794,-5.587935447692871e-09,0.0,-0.002112944610416889,0.2910793423652649,0.8455981950002744,-0.2943476438522339,0.6236122250556946,-0.2964605987071991,0.74077308177948,2.271056652069092,0.9962866306304932,,,,,,,
4600980000.0,77.8,-1.3200000524520874,12041169408.0,1815.3242411453664,69.0,-0.006703122053295374,286720.0,636.7261443138123,6.040307143351242e-15,0.0,1.7837631702423096,-0.017837628722190857,0.04426608607172966,-0.017837630584836006,2.7939677238464355e-09,0.0,-0.015372956171631813,0.29718247056007385,0.8509517813121479,-0.27718520164489746,0.6570444703102112,-0.29255813360214233,0.7697678208351135,2.2563462257385254,0.9963064193725586,,,,,,,
4600980000.0,76.38,-0.8199999928474426,12041169408.0,1820.0808982326541,70.0,-0.004531454294919968,290816.0,638.9765937328339,5.833875049710002e-15,0.0,1.8506336212158203,-0.01850634254515171,0.034117620438337326,-0.018506335094571114,-7.450580596923828e-09,0.0,0.003980602137744427,0.2612203061580658,0.8141700580402226,-0.2054196298122406,0.535108208656311,-0.2014390230178833,0.6059672236442566,2.2504494190216064,0.9964048862457275,,,,,,,
4600980000.0,75.3,-1.2999999523162842,12041169408.0,1831.6448790955913,71.0,-0.01399272307753563,294912.0,641.2128350734711,5.663872149064275e-15,0.0,1.9142625331878662,-0.01914261281490326,0.0813208594918251,-0.019142623990774155,1.1175870895385742e-08,0.0,-0.04018332064151764,0.40133070945739746,0.854094015555354,-0.44207626581192017,0.9271121025085449,-0.482259601354599,1.0506689548492432,2.236241340637207,0.9966139793395996,,,,,,,
4600980000.0,77.05,-1.3200000524520874,12041169408.0,1758.8375023457318,72.0,-0.0066022807732224464,299008.0,643.5416460037231,5.046310591616532e-15,0.0,1.9687354564666748,-0.019687367603182793,0.04355662316083908,-0.019687354564666748,-1.30385160446167e-08,0.0,0.033884771168231964,0.2932337820529938,0.8637657537919272,-0.3319847583770752,0.7822600603103638,-0.29809996485710144,0.7944579124450684,2.328810930252075,0.9962506294250488,,,,,,,
4600980000.0,76.86,-1.149999976158142,12041169408.0,1811.0336626073413,73.0,-0.011423222720623016,303104.0,645.8033378124237,5.4990734188464785e-15,0.0,2.0737719535827637,-0.02073771506547928,0.06107074022293091,-0.020737718790769577,3.725290298461914e-09,0.0,-0.019311439245939255,0.348996102809906,0.8651612364938412,-0.3203731179237366,0.8370122909545898,-0.33968454599380493,0.9504148364067078,2.2616918087005615,0.9963438510894775,,,,,,,
4600980000.0,76.23,-1.3700000047683716,12041169408.0,1786.18711481798,74.0,-0.0051015447825193405,307200.0,648.0964906215668,4.767020111984266e-15,0.0,2.1406707763671875,-0.021406717598438263,0.0384814515709877,-0.021406706422567368,-1.0244548320770264e-08,0.0,0.05690503865480423,0.2715561091899872,0.873129277010202,-0.2632773518562317,0.7441884279251099,-0.20637233555316925,0.7623929977416992,2.2931528091430664,0.9964437484741211,,,,,,,
4600980000.0,75.49,-0.6700000166893005,12041169408.0,1797.3578830436302,75.0,-0.003730437019839883,311296.0,650.3753912448883,4.8520215623071294e-15,0.0,2.124873399734497,-0.02124873735010624,0.05265621840953827,-0.02124873362481594,-3.725290298461914e-09,0.0,0.032147496938705444,0.3229619860649109,0.8333742692664281,-0.21789565682411194,0.7241335511207581,-0.1857481449842453,0.7911891937255859,2.278900623321533,0.9964184761047363,,,,,,,
4600980000.0,77.39,-0.7200000286102295,12041169408.0,1823.359405448702,76.0,-0.011468758806586266,315392.0,652.6217942237854,5.736730535055301e-15,0.0,2.1492815017700195,-0.021492818370461464,0.07590028643608093,-0.021492814645171165,-3.725290298461914e-09,0.0,0.0062599703669548035,0.38961321115493774,0.869755391723354,-0.39329737424850464,1.0100469589233398,-0.38703739643096924,1.0795773267745972,2.2464029788970947,0.9964230060577393,,,,,,,
4600980000.0,77.75,-1.149999976158142,12041169408.0,1801.9473959511674,77.0,-0.005538661032915115,319488.0,654.8948905467987,5.5806054222173884e-15,0.0,2.177013874053955,-0.021770130842924118,0.04626442492008209,-0.021770138293504715,7.450580596923828e-09,0.0,0.0044977013021707535,0.30418941378593445,0.8105353320181512,-0.22923815250396729,0.6328821778297424,-0.22474046051502228,0.6988435983657837,2.2730963230133057,0.9963393211364746,,,,,,,
4600980000.0,75.41,-1.1299999952316284,12041169408.0,1738.3879439550792,78.0,-0.00763066578656435,323584.0,657.2510964870453,5.6257082325927854e-15,0.0,2.199888229370117,-0.021998882293701172,0.05873185768723488,-0.021998882293701172,9.313225746154785e-10,0.0,-0.0018363713752478361,0.34276673197746277,0.7208570436098876,-0.17741508781909943,0.5705206990242004,-0.17925144731998444,0.6487618684768677,2.356205940246582,0.9964370727539062,,,,,,,
4600980000.0,75.67,-0.8799999952316284,12041169408.0,1772.064295685723,79.0,-0.00416865199804306,327680.0,659.5625250339508,5.200700980978468e-15,0.0,2.1943135261535645,-0.021943137049674988,0.05559105426073074,-0.02194313518702984,-1.862645149230957e-09,0.0,0.023327767848968506,0.3326633870601654,0.8048102035942166,-0.16948801279067993,0.7118414044380188,-0.14616024494171143,0.752967894077301,2.3114285469055176,0.9963963031768799,,,,,,,
4600980000.0,77.58,-0.6100000143051147,12041169408.0,1811.2303233049659,80.0,-0.005431458819657564,331776.0,661.8239712715149,5.592748486549226e-15,0.0,2.105088233947754,-0.02105087973177433,0.05473773926496506,-0.02105088159441948,1.862645149230957e-09,0.0,-0.019480574876070023,0.33033716678619385,0.8067739062825146,-0.12896063923835754,0.6492328643798828,-0.14844122529029846,0.7514922618865967,2.261446237564087,0.9964523315429688,,,,,,,
4600980000.0,76.74,-0.550000011920929,12041169408.0,1804.3006941464384,81.0,-0.0029284365009516478,335872.0,664.0941028594971,5.577135975265435e-15,0.0,2.07429838180542,-0.02074297145009041,0.04196450859308243,-0.020742982625961304,1.210719347000122e-08,0.0,0.053165968507528305,0.2848195731639862,0.8214292503765065,-0.09039752185344696,0.6779738664627075,-0.03723154217004776,0.6740074753761292,2.2701315879821777,0.996483564376831,,,,,,,
4600980000.0,76.95,-0.30000001192092896,12041169408.0,1806.0916828739573,82.0,-0.0009790381882339716,339968.0,666.3619832992554,6.498274141009119e-15,0.0,2.0039963722229004,-0.020039966329932213,0.03377559036016464,-0.020039962604641914,-3.725290298461914e-09,0.0,0.021096237003803253,0.2590801417827606,0.7815384412565101,-0.08659887313842773,0.5358405113220215,-0.06550262868404388,0.5543022155761719,2.267880439758301,0.9963631629943848,,,,,,,
4600980000.0,75.36,-0.5099999904632568,12041169408.0,1817.5926303780864,83.0,-0.004766643978655338,344064.0,668.6155135631561,7.015221736850208e-15,0.0,1.8874292373657227,-0.018874289467930794,0.04128915071487427,-0.018874291330575943,1.3969838619232178e-09,0.0,-0.0063155898824334145,0.2873300611972809,0.7795046560133732,-0.04287245124578476,0.5495175719261169,-0.0491880401968956,0.6119012832641602,2.253530263900757,0.9964284896850586,,,,,,,
4600980000.0,76.55,-0.5699999928474426,12041169408.0,1785.3789016489836,84.0,-0.0033740708604454994,348160.0,670.9097044467926,6.708175681602313e-15,0.0,1.8379255533218384,-0.01837925985455513,0.03692391514778137,-0.018379254266619682,-5.587935447692871e-09,0.0,-0.01720479689538479,0.27123749256134033,0.8037261165659122,-0.021739453077316284,0.5456876754760742,-0.03894425183534622,0.6122355461120605,2.2941908836364746,0.9965012073516846,,,,,,,
4600980000.0,79.56,-0.7400000095367432,12041169408.0,1764.1610101839485,85.0,-0.007881373167037964,352256.0,673.2314879894257,7.879114027886658e-15,0.0,1.7637293338775635,-0.017637301236391068,0.028413571417331696,-0.01763729378581047,-7.450580596923828e-09,0.0,-0.04197493940591812,0.23468850553035736,0.902373015606412,-0.10895861685276031,0.7027432322502136,-0.15093354880809784,0.7511157393455505,2.3217835426330566,0.9965481758117676,,,,,,,
4600980000.0,75.41,-1.0499999523162842,12041169408.0,1794.0949373764201,86.0,-0.005642418749630451,356352.0,675.5145332813263,8.482797797526587e-15,0.0,1.6878931522369385,-0.016878949478268623,0.026705492287874222,-0.01687893085181713,-1.862645149230957e-08,0.0,-0.041256535798311234,0.22742365300655365,0.8760507261304066,-0.05188200622797012,0.5827144384384155,-0.09313853830099106,0.6459718942642212,2.2830452919006348,0.9968724250793457,,,,,,,
4600980000.0,77.42,-0.8999999761581421,12041169408.0,1831.2797741390202,87.0,-0.010165323503315449,360448.0,677.7512204647064,8.914743943044812e-15,0.0,1.6975717544555664,-0.01697571948170662,0.030569937080144882,-0.01697571761906147,-1.862645149230957e-09,0.0,-0.04133240133523941,0.2438155561685562,0.9232362936768376,-0.12146361917257309,0.8162855505943298,-0.1627960205078125,0.8800015449523926,2.236687183380127,0.9968104362487793,,,,,,,
4600980000.0,77.62,-0.8600000143051147,12041169408.0,1827.8673354002506,88.0,-0.003537702839821577,364544.0,679.9920833110809,9.303322001663616e-15,0.0,1.6618528366088867,-0.016618534922599792,0.026169415563344955,-0.016618527472019196,-7.450580596923828e-09,0.0,-0.0184464268386364,0.228059783577919,0.8464779412101753,-0.06067889928817749,0.5218849182128906,-0.07912532985210419,0.5820540189743042,2.2408628463745117,0.9967808723449707,,,,,,,
4600980000.0,76.7,-0.4000000059604645,12041169408.0,1788.8666448072024,89.0,-0.003262496320530772,368640.0,682.2818012237549,8.248610128269718e-15,0.0,1.81804621219635,-0.01818046160042286,0.04153818637132645,-0.01818046160042286,0.0,0.0,0.011814627796411514,0.28802263736724854,0.8430761686923728,-0.14242199063301086,0.6502577662467957,-0.13060736656188965,0.7270799279212952,2.28971791267395,0.9966597557067871,,,,,,,
4600980000.0,75.85,-0.7599999904632568,12041169408.0,1792.6386667174481,90.0,-0.007807974703609943,372736.0,684.5667011737823,7.787173683659887e-15,0.0,1.9620981216430664,-0.01962098479270935,0.032835666090250015,-0.019620981067419052,-3.725290298461914e-09,0.0,-0.008756195195019245,0.25614580512046814,0.9012688660403452,-0.19924451410770416,0.7705765962600708,-0.20800071954727173,0.8151925206184387,2.284899950027466,0.9967203140258789,,,,,,,
4600980000.0,77.35,-1.1200000047683716,12041169408.0,1755.5595800890233,91.0,-0.005826395936310291,376832.0,686.8998603820801,6.697767340746452e-15,0.0,2.0987493991851807,-0.02098749950528145,0.0417904332280159,-0.020987493917346,-5.587935447692871e-09,0.0,-0.005975952371954918,0.2890770733356476,0.8157373778764601,-0.1255984902381897,0.571698009967804,-0.13157445192337036,0.6734339594841003,2.3331592082977295,0.9971554279327393,,,,,,,
4600980000.0,76.76,-0.8500000238418579,12041169408.0,1796.1999296570132,92.0,-0.002703955629840493,380928.0,689.180230140686,6.635317295611287e-15,0.0,2.1983327865600586,-0.02198333479464054,0.039297327399253845,-0.021983327344059944,-7.450580596923828e-09,0.0,0.03545013815164566,0.27813097834587097,0.8814583306506525,-0.24591921269893646,0.750170111656189,-0.2104690670967102,0.8078185319900513,2.280369758605957,0.9966526031494141,,,,,,,
4600980000.0,76.2,-0.550000011920929,12041169408.0,1803.69224114562,93.0,-0.007689109072089195,385024.0,691.4511275291443,6.255412854372366e-15,0.0,2.2165699005126953,-0.022165704518556595,0.04791567474603653,-0.022165698930621147,-6.51925802230835e-09,0.0,0.0265212319791317,0.3084658980369568,0.8897796808904886,-0.3481478691101074,0.8485212922096252,-0.3216266632080078,0.9291296601295471,2.270897388458252,0.9969441890716553,,,,,,,
4600980000.0,74.61,-0.5600000023841858,12041169408.0,1761.62139965885,94.0,-0.0024247360415756702,389120.0,693.7762582302094,5.856426454897701e-15,0.0,2.329392433166504,-0.023293932899832726,0.04664764925837517,-0.02329392358660698,-9.313225746154785e-09,0.0,0.05712530016899109,0.300089955329895,0.7990160369273263,-0.25209420919418335,0.5899351835250854,-0.19496890902519226,0.6693770289421082,2.3251307010650635,0.9971647262573242,,,,,,,
4600980000.0,76.41,-0.49000000953674316,12041169408.0,1763.2779467570167,95.0,-0.0059986538253724575,393216.0,696.0992045402527,6.38378239159465e-15,0.0,2.3589444160461426,-0.02358943596482277,0.05950503796339035,-0.023589443415403366,7.450580596923828e-09,0.0,0.023150544613599777,0.34424275159835815,0.751833671448239,-0.20244723558425903,0.5710113644599915,-0.17929670214653015,0.6910243630409241,2.322946310043335,0.9967186450958252,,,,,,,
,,,,,,,,,,,,,,,,,,,,,,,,,,0.005713535938411951,0.059005457907915115,0.04218486696481705,0.005713535938411951,0.059005457907915115,0.04218486696481705,
,,,,,,,,,,,,,,,,,,,,,,,,,,0.00338042713701725,0.04083498194813728,0.03683091700077057,0.00338042713701725,0.04083498194813728,0.03683091700077057,
,,,,,,,,,,,,,,,,,,,,,,,,,,0.0025935485027730465,0.03470202535390854,0.030875718221068382,0.0025935485027730465,0.03470202535390854,0.030875718221068382,
,,,,,,,,,,,,,,,,,,,,,,,,,,0.0025184787809848785,0.03230500593781471,0.02967139706015587,0.0025184787809848785,0.03230500593781471,0.02967139706015587,
,,,,,,,,,,,,,,,,,,,,,,,,,,0.00260376138612628,0.03124808333814144,0.029953457415103912,0.00260376138612628,0.03124808333814144,0.029953457415103912,
,,,,,,,,,,,,,,,,,,,,,,,,,,0.0023751254193484783,0.02965082786977291,0.027045266702771187,0.0023751254193484783,0.02965082786977291,0.027045266702771187,
,,,,,,,,,,,,,,,,,,,,,,,,,,,,,,,,-1.21
4602340000.0,77.37,-0.5099999904632568,11990521856.0,17.05907566045129,96.0,-0.0022886707447469234,397312.0,936.2060005664825,5.929284840888727e-15,0.0,2.4661834239959717,-0.02466183342039585,0.033201538026332855,-0.02466183342039585,0.0,0.0,0.04308569058775902,0.25409144163131714,0.852989724982675,-0.1081414520740509,0.6153988838195801,-0.06505575776100159,0.6626988053321838,240.10679602622986,0.997187614440918,,,,,,,
4602340000.0,79.4,-0.4300000071525574,12041169408.0,1799.4628158288156,97.0,-0.003721915651112795,401408.0,938.4822354316711,5.988265439071938e-15,0.0,2.4825029373168945,-0.024825027212500572,0.06440410017967224,-0.02482502907514572,1.862645149230957e-09,0.0,-0.00459933141246438,0.35891294479370117,0.7671644002112367,-0.06850307434797287,0.6458878517150879,-0.07310241460800171,0.7438141703605652,2.2762348651885986,0.9968583583831787,,,,,,,
4602340000.0,80.09,-0.9100000262260437,12041169408.0,1787.7757854020024,98.0,-0.009441874921321869,405504.0,940.7733504772186,5.950101522600448e-15,0.0,2.4843509197235107,-0.02484351396560669,0.05621480941772461,-0.024843508377671242,-5.587935447692871e-09,0.0,-0.046797558665275574,0.33206403255462646,0.8779249000984743,-0.24433335661888123,0.8560844659805298,-0.2911309003829956,0.9504041075706482,2.2911150455474854,0.996906042098999,,,,,,,
4602340000.0,80.56,-1.399999976158142,12041169408.0,1785.4585024794471,99.0,-0.00957987830042839,409600.0,943.0674390792847,6.144390551909851e-15,0.0,2.501542091369629,-0.025015421211719513,0.08358065038919449,-0.025015421211719513,0.0,0.0,-0.01983274146914482,0.40842220187187195,0.8451982946029482,-0.2739068567752838,0.9035694599151611,-0.2937396168708801,1.0380576848983765,2.29408860206604,0.9961466789245605,,,,,,,
4602340000.0,77.43,-1.2200000286102295,12041169408.0,1842.1581405084116,100.0,-0.006724601611495018,413696.0,945.2909181118011,6.019490461639521e-15,0.0,2.4866435527801514,-0.024866439402103424,0.04025358334183693,-0.024866435676813126,-3.725290298461914e-09,0.0,-0.0037232544273138046,0.283748060464859,0.8784809742951044,-0.19568270444869995,0.7301717400550842,-0.1994059830904007,0.8139744997024536,2.2234790325164795,0.9962661266326904,,,,,,,
4602340000.0,74.19,-0.8500000238418579,12041169408.0,1835.0565532846588,101.0,-0.006013357080519199,417792.0,947.523001909256,6.0212251851154974e-15,0.0,2.5035953521728516,-0.025035955011844635,0.08168145269155502,-0.025035953149199486,-1.862645149230957e-09,0.0,0.006143154110759497,0.4041844308376312,0.8428781217873158,-0.25805404782295227,0.907188355922699,-0.25191089510917664,1.0196737051010132,2.232083797454834,0.996361255645752,,,,,,,
4602340000.0,77.41,-0.7699999809265137,12041169408.0,1797.718050995099,102.0,-0.006161757744848728,421888.0,949.8014459609985,6.293576770843856e-15,0.0,2.4957754611968994,-0.024957753717899323,0.06428965926170349,-0.024957753717899323,0.0,0.0,0.013622689992189407,0.358364462852478,0.8490909030069048,-0.24198400974273682,0.8936229348182678,-0.2283613383769989,0.9225018620491028,2.2784440517425537,0.9966609477996826,,,,,,,
4602340000.0,81.06,-1.0800000429153442,12041169408.0,1819.5453902186723,103.0,-0.009176110848784447,425984.0,952.0525577068329,6.774095173689432e-15,0.0,2.500425338745117,-0.025004245340824127,0.09467732906341553,-0.025004252791404724,7.450580596923828e-09,0.0,-0.013155472464859486,0.43500322103500366,0.7536464307026697,-0.2154952883720398,0.8693655133247375,-0.228650763630867,0.8764215111732483,2.2511117458343506,0.996584415435791,,,,,,,
4602340000.0,76.3,-0.5,12041169408.0,1796.7775922766841,104.0,0.00158021436072886,430080.0,954.3321943283081,6.385517115070627e-15,0.0,2.527334690093994,-0.025273339822888374,0.03444487974047661,-0.025273345410823822,5.587935447692871e-09,0.0,0.06840924918651581,0.25342774391174316,0.8361509528878085,-0.023912793025374413,0.6068138480186462,0.04449646174907684,0.6260833740234375,2.2796366214752197,0.9964070320129395,,,,,,,
4602340000.0,76.11,-0.30000001192092896,12041169408.0,1811.8948941088076,105.0,-0.006463024765253067,434176.0,956.5928111076355,6.423681031542117e-15,0.0,2.5011532306671143,-0.02501152828335762,0.07448070496320724,-0.02501153200864792,3.725290298461914e-09,0.0,-0.011716794222593307,0.38582441210746765,0.849058562655785,-0.29218780994415283,0.9207417368888855,-0.30390459299087524,0.9930827617645264,2.2606167793273926,0.9964370727539062,,,,,,,
4602340000.0,80.04,-0.6899999976158142,12041169408.0,1731.6011126680185,106.0,-0.003165514674037695,438272.0,958.958251953125,6.328271240363392e-15,0.0,2.437408924102783,-0.024374084547162056,0.06106647849082947,-0.024374088272452354,3.725290298461914e-09,0.0,-0.004314175806939602,0.34949129819869995,0.80942534997078,-0.22215445339679718,0.758364200592041,-0.22646863758563995,0.8005782961845398,2.365440845489502,0.9974777698516846,,,,,,,
4602340000.0,82.44,-0.8799999952316284,12041169408.0,1792.8139529156304,107.0,-0.007629389874637127,442368.0,961.2429285049438,6.42715047849407e-15,0.0,2.506052017211914,-0.02506052702665329,0.062089256942272186,-0.025060519576072693,-7.450580596923828e-09,0.0,-0.018591398373246193,0.35194191336631775,0.8533212640759771,-0.14256501197814941,0.8524418473243713,-0.16115641593933105,0.918940544128418,2.2846765518188477,0.996558427810669,,,,,,,
4602340000.0,79.39,-0.9700000286102295,12041169408.0,1801.191708541897,108.0,-0.006770621985197067,446464.0,963.5169785022736,6.598888102615774e-15,0.0,2.4769372940063477,-0.024769376963377,0.05726214498281479,-0.0247693732380867,-2.7939677238464355e-09,0.0,-0.016827983781695366,0.33803698420524597,0.8734469787364978,-0.16780176758766174,0.8802362680435181,-0.18462975323200226,0.9502282738685608,2.274049997329712,0.9963099956512451,,,,,,,
4602340000.0,76.44,-0.6600000262260437,12041169408.0,1778.744379544284,109.0,-0.004324003122746944,450560.0,965.8197264671326,6.687358999890591e-15,0.0,2.402595281600952,-0.024025948718190193,0.034772153943777084,-0.02402595244348049,3.725290298461914e-09,0.0,0.025747843086719513,0.2624846398830414,0.9163712921980807,-0.14547322690486908,0.888852059841156,-0.11972537636756897,0.9076662659645081,2.302747964859009,0.9963231086730957,,,,,,,
4602340000.0,75.62,-0.5600000023841858,12041169408.0,1793.614494185899,110.0,-0.006924787536263466,454656.0,968.1033833026886,6.564193633096238e-15,0.0,2.449761390686035,-0.024497609585523605,0.055768754333257675,-0.024497613310813904,3.725290298461914e-09,0.0,-0.014044378884136677,0.3337176442146301,0.7876704722084182,-0.17097456753253937,0.6283739805221558,-0.18501895666122437,0.7242256999015808,2.2836568355560303,0.9967572689056396,,,,,,,
4602340000.0,74.73,-0.6299999952316284,12041169408.0,1764.5728775688315,111.0,-0.002744496101513505,458752.0,970.4246249198914,7.251144129583054e-15,0.0,2.4349868297576904,-0.024349868297576904,0.03764829784631729,-0.024349868297576904,0.0,0.0,0.02945766970515251,0.27284979820251465,0.8751412360491378,-0.14164501428604126,0.7117667198181152,-0.11218734085559845,0.7721721529960632,2.321241617202759,0.9965612888336182,,,,,,,
4602340000.0,76.48,-0.5600000023841858,12041169408.0,1712.8048273947172,112.0,-0.007084627170115709,462848.0,972.8160240650177,6.718584022458174e-15,0.0,2.392268657684326,-0.02392268180847168,0.055510785430669785,-0.023922685533761978,3.725290298461914e-09,0.0,-0.029202058911323547,0.3319573998451233,0.8210891373293515,-0.17934976518154144,0.6527899503707886,-0.208551824092865,0.7848090529441833,2.3913991451263428,0.9964101314544678,,,,,,,
4602340000.0,77.07,-0.7099999785423279,12041169408.0,1836.3466197977843,113.0,-0.003617634763941169,466944.0,975.0465397834778,6.418476861114186e-15,0.0,2.492995262145996,-0.024929948151111603,0.049398645758628845,-0.0249299518764019,2.7939677238464355e-09,0.0,0.014139223843812943,0.31404054164886475,0.8699762182063837,-0.16377975046634674,0.8173431754112244,-0.1496405303478241,0.8709120750427246,2.230515718460083,0.996537446975708,,,,,,,
4602340000.0,75.45,-0.5,12041169408.0,1743.8719066593067,114.0,-0.004782637115567923,471040.0,977.395336151123,6.305719835175694e-15,0.0,2.4913735389709473,-0.0249137282371521,0.07182931900024414,-0.024913735687732697,7.450580596923828e-09,0.0,-0.01744469627737999,0.37866780161857605,0.7658546359981708,-0.15791864693164825,0.6507277488708496,-0.17536333203315735,0.7825562953948975,2.3487963676452637,0.9964959621429443,,,,,,,
4602340000.0,80.42,-0.7200000286102295,12041169408.0,1821.0297019837822,115.0,-0.005366840399801731,475136.0,979.6446130275726,6.189493362285248e-15,0.0,2.5112504959106445,-0.02511250600218773,0.04562165215611458,-0.02511250413954258,-9.313225746154785e-10,0.0,0.01907382160425186,0.30149906873703003,0.8706690884948644,-0.21339869499206543,0.7692648768424988,-0.19432488083839417,0.8383681774139404,2.249276876449585,0.9966344833374023,,,,,,,
4602340000.0,85.28,-0.5400000214576721,12041169408.0,1795.7679118499111,116.0,-0.0002905770670622587,479232.0,981.9255313873291,5.983061268644008e-15,0.0,2.550506114959717,-0.025505052879452705,0.07332506030797958,-0.025505060330033302,7.450580596923828e-09,0.0,0.03700155019760132,0.3812039792537689,0.6097106375302606,-0.0588705874979496,0.614677906036377,-0.02186904102563858,0.6101886034011841,2.2809183597564697,0.9975190162658691,,,,,,,
4602340000.0,81.61,-0.47999998927116394,12041169408.0,1820.1235133779037,117.0,-0.007410100195556879,483328.0,984.1759281158447,6.1374516580059435e-15,0.0,2.5271787643432617,-0.025271790102124214,0.10373204201459885,-0.025271786376833916,-3.725290298461914e-09,0.0,-0.05655389279127121,0.45201289653778076,0.7044198151973249,-0.1364665925502777,0.7255553603172302,-0.19302047789096832,0.8314059972763062,2.250396728515625,0.9962611198425293,,,,,,,
4602340000.0,78.25,-0.8199999928474426,12041169408.0,1831.0947390904612,118.0,-0.005380698945373297,487424.0,986.4128413200378,6.4427629897778615e-15,0.0,2.556767463684082,-0.025567669421434402,0.10693445801734924,-0.0255676731467247,3.725290298461914e-09,0.0,-0.04207278788089752,0.46059808135032654,0.5978952808188642,-0.05279022455215454,0.5787801742553711,-0.09486300498247147,0.726361095905304,2.2369132041931152,0.9965753555297852,,,,,,,
4602340000.0,75.43,-0.800000011920929,12041169408.0,1781.1295644773293,119.0,-0.007130710873752832,491520.0,988.7125055789948,5.979591821692054e-15,0.0,2.529085636138916,-0.02529085986316204,0.07096888870000839,-0.025290856137871742,-3.725290298461914e-09,0.0,-0.016588415950536728,0.37642690539360046,0.755412079686612,-0.10003446787595749,0.6726270318031311,-0.11662288010120392,0.7611374258995056,2.299664258956909,0.9963943958282471,,,,,,,
4602340000.0,77.23,-0.6000000238418579,12041169408.0,1800.2538381431634,120.0,-0.0018934262916445732,495616.0,990.987740278244,5.9570404165043556e-15,0.0,2.567361354827881,-0.025673620402812958,0.08042459934949875,-0.02567361295223236,-7.450580596923828e-09,0.0,0.003727603703737259,0.40109172463417053,0.6330007147614874,-0.052693843841552734,0.5440452098846436,-0.04896623641252518,0.6620809435844421,2.2752346992492676,0.9967358112335205,,,,,,,
4602340000.0,83.46,-0.20000000298023224,12041169408.0,1792.23547023745,121.0,-0.0034957746975123882,499712.0,993.273154258728,6.34041430469523e-15,0.0,2.5581507682800293,-0.02558150328695774,0.12017002701759338,-0.02558150701224804,3.725290298461914e-09,0.0,-0.029298532754182816,0.4894283711910248,0.6854196867711949,-0.10035103559494019,0.6540166735649109,-0.1296495646238327,0.8726164102554321,2.285413980484009,0.9968540668487549,,,,,,,
4602340000.0,80.54,-0.4399999976158142,12041169408.0,1754.060935601582,122.0,-0.0024768728762865067,503808.0,995.6083068847656,6.1547988927657116e-15,0.0,2.5581626892089844,-0.02558162435889244,0.08626814931631088,-0.02558162622153759,1.862645149230957e-09,0.0,0.03742368519306183,0.41373610496520996,0.6905790503047025,-0.1422424465417862,0.6418172121047974,-0.10481876134872437,0.7437869310379028,2.3351526260375977,0.9962923526763916,,,,,,,
4602340000.0,78.92,-0.30000001192092896,12041169408.0,1811.4692375807444,123.0,-0.001603422686457634,507904.0,997.8694548606873,6.3803129446426965e-15,0.0,2.535907506942749,-0.025359075516462326,0.0567064993083477,-0.025359073653817177,-2.7939677238464355e-09,0.0,0.07374908030033112,0.32863420248031616,0.8568105385774318,-0.25792500376701355,0.8139578104019165,-0.18417592346668243,0.8684747815132141,2.261147975921631,0.9963204860687256,,,,,,,
4602340000.0,85.53,-0.14000000059604645,12041169408.0,1842.3104490467526,124.0,-0.0007297190604731441,512000.0,1000.0927500724792,7.042977312465837e-15,0.0,2.4654221534729004,-0.02465422824025154,0.06631392240524292,-0.024654220789670944,-7.450580596923828e-09,0.0,0.01870550960302353,0.3637447655200958,0.7247472859033183,-0.0963575541973114,0.5712335705757141,-0.07765204459428787,0.6933155059814453,2.223295211791992,0.9964370727539062,,,,,,,
4602340000.0,83.63,-0.20999999344348907,12041169408.0,1803.609112725693,125.0,-0.0007299948483705521,516096.0,1002.3637521266937,6.687358999890591e-15,0.0,2.517906904220581,-0.025179067626595497,0.10388825833797455,-0.025179067626595497,0.0,0.0,0.004616299644112587,0.4558573365211487,0.661603350405572,-0.07508254051208496,0.6562605500221252,-0.07046623528003693,0.7836387753486633,2.2710020542144775,0.9965226650238037,,,,,,,
4602340000.0,83.8,0.10999999940395355,12041169408.0,1778.747142024412,126.0,0.00409352034330368,520192.0,1004.666496515274,7.058589823749628e-15,0.0,2.481574058532715,-0.024815717712044716,0.048753537237644196,-0.024815740063786507,2.2351741790771484e-08,0.0,0.06862762570381165,0.3046637177467346,0.5437620175368663,0.08144629746675491,0.42791926860809326,0.15007391571998596,0.45105037093162537,2.3027443885803223,0.9961493015289307,,,,,,,
4602340000.0,86.47,0.23999999463558197,12041169408.0,1789.6053123556937,127.0,-0.0007321661687456071,524288.0,1006.9552693367004,7.065528717653535e-15,0.0,2.5187935829162598,-0.025187935680150986,0.06965723633766174,-0.025187935680150986,0.0,0.0,0.026084650307893753,0.37238144874572754,0.6149224581962919,-0.012327244505286217,0.526138424873352,0.013757400214672089,0.6000866293907166,2.2887728214263916,0.9964635372161865,,,,,,,
,,,,,,,,,,,,,,,,,,,,,,,,,,0.009243815205991268,0.08567852526903152,0.07977689057588577,0.009243815205991268,0.08567852526903152,0.07977689057588577,
,,,,,,,,,,,,,,,,,,,,,,,,,,0.004669998772442341,0.06366425007581711,0.06105608865618706,0.004669998772442341,0.06366425007581711,0.06105608865618706,
,,,,,,,,,,,,,,,,,,,,,,,,,,0.005753851495683193,0.059598326683044434,0.059918321669101715,0.005753851495683193,0.059598326683044434,0.059918321669101715,
,,,,,,,,,,,,,,,,,,,,,,,,,,0.0038194810040295124,0.053579431027173996,0.05317923054099083,0.0038194810040295124,0.053579431027173996,0.05317923054099083,
,,,,,,,,,,,,,,,,,,,,,,,,,,0.004170170985162258,0.0520884245634079,0.05176839604973793,0.004170170985162258,0.0520884245634079,0.05176839604973793,
,,,,,,,,,,,,,,,,,,,,,,,,,,0.004410571418702602,0.05012333765625954,0.05034903809428215,0.004410571418702602,0.05012333765625954,0.05034903809428215,
,,,,,,,,,,,,,,,,,,,,,,,,,,,,,,,,-0.47
4603160000.0,82.19,-0.3199999928474426,11990521856.0,17.08018775643747,128.0,-0.007035094313323498,528384.0,1246.7652795314789,6.630113125183357e-15,0.0,2.436826705932617,-0.024368269369006157,0.07049906998872757,-0.02436826564371586,-3.725290298461914e-09,0.0,0.019987229257822037,0.3750106394290924,0.7850567071624776,-0.18308556079864502,0.7388824224472046,-0.16309833526611328,0.8088753819465637,239.81001019477844,0.9966838359832764,,,,,,,
4603160000.0,77.81,-0.5600000023841858,12041169408.0,1749.7642112643507,129.0,-0.0008806610712781549,532480.0,1249.1061663627625,7.112366251504909e-15,0.0,2.444960117340088,-0.024449607357382774,0.04883723706007004,-0.024449599906802177,-7.450580596923828e-09,0.0,0.04443463683128357,0.3093920052051544,0.8039003676675,-0.0880923718214035,0.6539451479911804,-0.04365772008895874,0.6986677050590515,2.3408868312835693,0.9964637756347656,,,,,,,
4603160000.0,77.21,-0.38999998569488525,12041169408.0,1818.673791800704,130.0,-0.004114064853638411,536576.0,1251.3583569526672,7.119305145408816e-15,0.0,2.454418659210205,-0.024544183164834976,0.08041193336248398,-0.024544186890125275,3.725290298461914e-09,0.0,-4.016142338514328e-05,0.4010774791240692,0.6696540053263365,-0.1133870854973793,0.6598777174949646,-0.11342723667621613,0.6978205442428589,2.252190589904785,0.9966831207275391,,,,,,,
4603160000.0,74.81,-0.3199999928474426,12041169408.0,1794.4828511729406,131.0,0.000294429250061512,540672.0,1253.6409087181091,7.606762442158299e-15,0.0,2.4798779487609863,-0.02479877695441246,0.060680512338876724,-0.02479877881705761,1.862645149230957e-09,0.0,0.05204799026250839,0.3445010781288147,0.6229111051686491,0.020600175485014915,0.5604473352432251,0.07264816015958786,0.561007559299469,2.2825517654418945,0.9964935779571533,,,,,,,
4603160000.0,78.32,-0.019999999552965164,12041169408.0,1760.7982630484548,132.0,-0.0007368135266005993,544768.0,1255.9671263694763,7.912073773930217e-15,0.0,2.4953837394714355,-0.02495383843779564,0.08135451376438141,-0.02495383657515049,-1.862645149230957e-09,0.0,-0.023607240989804268,0.402729868888855,0.6825005744555883,0.053987786173820496,0.5893906354904175,0.030380547046661377,0.7147305607795715,2.3262176513671875,0.9966535568237305,,,,,,,
4603160000.0,83.45,-0.07999999821186066,12041169408.0,1791.0734620942167,133.0,-0.0032424372620880604,548864.0,1258.2540230751038,7.589415207398531e-15,0.0,2.4520559310913086,-0.02452055923640728,0.07665902376174927,-0.02452055923640728,0.0,0.0,-0.05890358239412308,0.387149840593338,0.7132084689633593,0.07665374875068665,0.5762740969657898,0.01775016263127327,0.7229294776916504,2.2868967056274414,0.9969863891601562,,,,,,,
4603160000.0,83.59,-0.05000000074505806,12041169408.0,1809.3048882040111,134.0,0.0014755900483578444,552960.0,1260.5178759098053,7.351758091189708e-15,0.0,2.5242583751678467,-0.025242585688829422,0.07406148314476013,-0.025242583826184273,-9.313225746154785e-10,0.0,0.044277727603912354,0.3823586702346802,0.566268921282195,0.1220768615603447,0.5280972719192505,0.16635459661483765,0.580578088760376,2.263852834701538,0.996549129486084,,,,,,,
4603160000.0,81.96,-0.3700000047683716,12041169408.0,1766.5123048081582,135.0,-0.0059063127264380455,557056.0,1262.836569070816,7.851358452271029e-15,0.0,2.5151572227478027,-0.02515159361064434,0.10552528500556946,-0.02515157125890255,-2.2351741790771484e-08,0.0,-0.09455320239067078,0.44962167739868164,0.5880113835366276,0.11737631261348724,0.5284450650215149,0.022823121398687363,0.7004942893981934,2.318693161010742,0.9968221187591553,,,,,,,
4603160000.0,79.99,-0.5400000214576721,12041169408.0,1763.836616561895,136.0,-0.0029549221508204937,561152.0,1265.1587796211243,7.1279787627887e-15,0.0,2.5379133224487305,-0.025379126891493797,0.10783764719963074,-0.025379132479429245,5.587935447692871e-09,0.0,-0.06775391846895218,0.4594956636428833,0.423811506943079,0.1671808660030365,0.5121719241142273,0.09942694008350372,0.6053396463394165,2.3222105503082275,0.9969415664672852,,,,,,,
4603160000.0,81.03,-0.23000000417232513,12041169408.0,1781.0444406109423,137.0,0.0002959108678624034,565248.0,1267.4585537910461,8.387388006347862e-15,0.0,2.5305335521698,-0.025305330753326416,0.08753007650375366,-0.025305334478616714,3.725290298461914e-09,0.0,0.011231804266571999,0.41830217838287354,0.5675920889677111,0.03183750808238983,0.5032538175582886,0.04306931048631668,0.6361262202262878,2.299774169921875,0.9970078468322754,,,,,,,
4603160000.0,83.14,-0.5400000214576721,12041169408.0,1690.6559434832443,138.0,-0.008434665389358997,569344.0,1269.8812820911407,8.172282295326738e-15,0.0,2.4819748401641846,-0.024819741025567055,0.12240362912416458,-0.02481974847614765,7.450580596923828e-09,0.0,-0.0660410225391388,0.4904126822948456,0.6139729255529569,-0.07232602685689926,0.5913144946098328,-0.13836704194545746,0.7893193364143372,2.4227283000946045,0.9981906414031982,,,,,,,
4603160000.0,86.54,-0.6700000166893005,12041169408.0,1762.5438506910855,139.0,-0.0031079999171197414,573440.0,1272.205195903778,8.19309897703846e-15,0.0,2.455819606781006,-0.024558205157518387,0.09973212331533432,-0.02455819584429264,-9.313225746154785e-09,0.0,-0.0376102440059185,0.4450820982456207,0.6643729601034769,-0.03983336687088013,0.5085038542747498,-0.07744359970092773,0.7682660818099976,2.323913812637329,0.9973349571228027,,,,,,,
4603160000.0,85.42,-0.5899999737739563,12041169408.0,1779.888411543172,140.0,-0.0011852971510961652,577536.0,1274.506463766098,8.819334151866087e-15,0.0,2.459961175918579,-0.024599621072411537,0.0790143609046936,-0.02459961175918579,-9.313225746154785e-09,0.0,0.02225722372531891,0.39695316553115845,0.6842979060857927,-0.11271647363901138,0.579894483089447,-0.09045924991369247,0.7064810991287231,2.3012678623199463,0.9968900680541992,,,,,,,
4603160000.0,80.37,-0.17000000178813934,12041169408.0,1749.9192702516245,141.0,-0.004004692193120718,581632.0,1276.8471431732178,8.841885557053786e-15,0.0,2.446599006652832,-0.024466000497341156,0.06373575329780579,-0.02446598932147026,-1.1175870895385742e-08,0.0,0.005445881746709347,0.3570335805416107,0.5749009531502055,-0.0513971671462059,0.4012990891933441,-0.04595128446817398,0.5476006865501404,2.340679407119751,0.9968905448913574,,,,,,,
4603160000.0,78.66,-0.07999999821186066,12041169408.0,1810.5845581043984,142.0,0.00029712647665292025,585728.0,1279.109395980835,9.112502419306168e-15,0.0,2.414691925048828,-0.0241469107568264,0.054639916867017746,-0.024146918207406998,7.450580596923828e-09,0.0,0.08608095347881317,0.31920960545539856,0.6895549958484881,-0.13751474022865295,0.5496295690536499,-0.05143378674983978,0.5729063153266907,2.2622528076171875,0.9969460964202881,,,,,,,
4603160000.0,79.07,-0.1899999976158142,12041169408.0,1756.3607666092626,143.0,-0.003867039456963539,589824.0,1281.4414908885956,9.785575127985169e-15,0.0,2.375979423522949,-0.023759793490171432,0.07401330769062042,-0.023759793490171432,0.0,0.0,0.005403021350502968,0.3847512900829315,0.6428875342289221,-0.11591504514217377,0.4836292862892151,-0.11051202565431595,0.643839418888092,2.33209490776062,0.9971292018890381,,,,,,,
4603160000.0,81.03,-0.5400000214576721,12041169408.0,1827.8675298778287,144.0,-0.004763896577060223,593920.0,1283.6823534965515,1.0004150285958247e-14,0.0,2.3532156944274902,-0.02353215031325817,0.0961066335439682,-0.02353215590119362,5.587935447692871e-09,0.0,-0.014517704024910927,0.4382343888282776,0.5454904051906768,-0.07181714475154877,0.445988267660141,-0.08633484691381454,0.6500322818756104,2.2408626079559326,0.9969930648803711,,,,,,,
4603160000.0,83.76,-0.4399999976158142,12041169408.0,1754.3855053567372,145.0,-0.001191220828332007,598016.0,1286.0170741081238,1.112131220448731e-14,0.0,2.4036779403686523,-0.024036778137087822,0.07883505523204803,-0.024036778137087822,0.0,0.0,0.025491155683994293,0.39630627632141113,0.679166255863341,-0.12655088305473328,0.49626395106315613,-0.10105971992015839,0.6996662616729736,2.3347206115722656,0.9971420764923096,,,,,,,
4603160000.0,80.2,-0.41999998688697815,12041169408.0,1730.5820948865846,146.0,-0.00312975887209177,602112.0,1288.3839077949524,1.0618242396454036e-14,0.0,2.3769824504852295,-0.023769821971654892,0.08090588450431824,-0.02376982383430004,9.313225746154785e-10,0.0,0.014819221571087837,0.40203434228897095,0.5935086035614013,-0.0900958925485611,0.4648134708404541,-0.07527667284011841,0.6305760741233826,2.3668336868286133,0.9967701435089111,,,,,,,
4603160000.0,81.11,-0.550000011920929,12041169408.0,1759.8848489765546,147.0,-0.002237195847555995,606208.0,1290.7113327980042,1.0925288451701931e-14,0.0,2.4234890937805176,-0.024234890937805176,0.1210341677069664,-0.024234890937805176,9.313225746154785e-10,0.0,-0.02684742584824562,0.4913313388824463,0.4747423122856208,-0.06162337213754654,0.3763412833213806,-0.08847080171108246,0.6779353022575378,2.327425003051758,0.996924638748169,,,,,,,
4603160000.0,84.62,-0.09000000357627869,12041169408.0,1772.933496015152,148.0,-0.00014940972323529422,610304.0,1293.0216281414032,1.0021497520718015e-14,0.0,2.5078415870666504,-0.025078410282731056,0.08125491440296173,-0.025078415870666504,5.587935447692871e-09,0.0,0.012589117512106895,0.4029776453971863,0.31785873168031953,-0.05618634074926376,0.41166990995407104,-0.043597228825092316,0.4879145920276642,2.310295343399048,0.9969568252563477,,,,,,,
4603160000.0,85.72,0.3499999940395355,12041169408.0,1750.9847513343207,149.0,0.002243606373667717,614400.0,1295.3608832359314,1.0354564428105562e-14,0.0,2.4871726036071777,-0.02487172931432724,0.08356040716171265,-0.02487172558903694,-3.725290298461914e-09,0.0,0.03703892603516579,0.40717244148254395,0.609065233412795,0.012842897325754166,0.4649164378643036,0.04988182336091995,0.6512177586555481,2.3392550945281982,0.9971966743469238,,,,,,,
4603160000.0,86.85,0.009999999776482582,12041169408.0,1778.3129854686501,150.0,-0.0022462732158601284,618496.0,1297.6641898155212,1.1513359710058069e-14,0.0,2.418311834335327,-0.0241831187158823,0.05696665123105049,-0.0241831187158823,0.0,0.0,0.02832026779651642,0.33639097213745117,0.7362970471118458,-0.08387912809848785,0.4972134232521057,-0.055558860301971436,0.6550686955451965,2.3033065795898438,0.9967865943908691,,,,,,,
4603160000.0,83.63,-0.30000001192092896,12041169408.0,1816.672376926647,151.0,-0.0017987226601690054,622592.0,1299.9188616275787,1.0758754998008158e-14,0.0,2.430046796798706,-0.02430047281086445,0.08384688198566437,-0.024300467222929,-6.05359673500061e-09,0.0,-0.004586446098983288,0.40952858328819275,0.5503578057034932,-0.0291377492249012,0.45429131388664246,-0.03372419625520706,0.6107320785522461,2.254671812057495,0.9970815181732178,,,,,,,
4603160000.0,82.45,-0.18000000715255737,12041169408.0,1841.0585528590902,152.0,0.001501525635831058,626688.0,1302.1436686515808,1.0571404862602662e-14,0.0,2.4405760765075684,-0.02440575323998928,0.06508143246173859,-0.024405760690569878,7.450580596923828e-09,0.0,0.06359323859214783,0.3551754057407379,0.5714767179664422,-0.025480300188064575,0.5098613500595093,0.038112934678792953,0.5425698757171631,2.224807024002075,0.9972195625305176,,,,,,,
4603160000.0,83.3,0.11999999731779099,12041169408.0,1776.4010238269097,153.0,0.001052748877555132,630784.0,1304.4494543075562,1.0593956267790361e-14,0.0,2.4583024978637695,-0.02458304911851883,0.05383468419313431,-0.02458302490413189,-2.421438694000244e-08,0.0,0.021499887108802795,0.3274649977684021,0.6785328941141571,0.01060680951923132,0.4854500889778137,0.03210670128464699,0.5775593519210815,2.305785655975342,0.997025728225708,,,,,,,
4603160000.0,79.91,0.07999999821186066,12041169408.0,1759.0548687999244,154.0,0.000451415020506829,634880.0,1306.7779774665833,1.0777836956243902e-14,0.0,2.4497263431549072,-0.0244972612708807,0.08214445412158966,-0.02449726313352585,1.862645149230957e-09,0.0,-0.005582871846854687,0.40533673763275146,0.6784265934105448,0.0463237389922142,0.5124768614768982,0.04074086993932724,0.7147857546806335,2.3285231590270996,0.997143030166626,,,,,,,
4603160000.0,79.7,0.05999999865889549,12041169408.0,1791.3823616939058,155.0,0.0009041123557835817,638976.0,1309.0644798278809,1.0111703141468809e-14,0.0,2.4426474571228027,-0.024426482617855072,0.05527982860803604,-0.024426473304629326,-1.0244548320770264e-08,0.0,0.0033274111337959766,0.33252906799316406,0.5930451396949439,0.11789298802614212,0.42449861764907837,0.1212204098701477,0.521262526512146,2.2865023612976074,0.9970331192016602,,,,,,,
4603160000.0,81.19,0.15000000596046448,12041169408.0,1836.351134388363,156.0,-0.0009049160871654749,643072.0,1311.2949900627136,1.0309461617730165e-14,0.0,2.4004101753234863,-0.024004103615880013,0.06960300356149673,-0.024004101753234863,-1.862645149230957e-09,0.0,-0.019215447828173637,0.3726535439491272,0.7154683133693591,0.11781779676675797,0.5825099945068359,0.09860236197710037,0.6986182928085327,2.2305102348327637,0.9968414306640625,,,,,,,
4603160000.0,79.68,0.3199999928474426,12041169408.0,1822.2734406821082,157.0,0.00679517537355423,647168.0,1313.5427317619324,9.775166787129308e-15,0.0,2.4983062744140625,-0.024983063340187073,0.05685635283589363,-0.024983061477541924,-1.862645149230957e-09,0.0,0.023490631952881813,0.3364350199699402,0.6155901655518428,0.2826276421546936,0.4106019139289856,0.30611827969551086,0.5426301956176758,2.24774169921875,0.9970066547393799,,,,,,,
4603160000.0,77.88,0.3799999952316284,12041169408.0,1855.5866473214705,158.0,-0.0022678175009787083,651264.0,1315.7501199245453,1.0385789450673144e-14,0.0,2.4290013313293457,-0.024290014058351517,0.11259590834379196,-0.024290012195706367,-2.3283064365386963e-09,0.0,-0.09015937894582748,0.4659571647644043,0.6266292264026168,0.17013581097126007,0.5433833599090576,0.07997642457485199,0.7625632286071777,2.207388162612915,0.9970262050628662,,,,,,,
4603160000.0,76.25,-0.20999999344348907,12041169408.0,1804.5870666844116,159.0,0.000151341431774199,655360.0,1318.0198912620544,9.553122182204277e-15,0.0,2.4195618629455566,-0.024195611476898193,0.06162675470113754,-0.02419561892747879,7.450580596923828e-09,0.0,-0.045199766755104065,0.34819549322128296,0.6929189724961573,0.2244328409433365,0.5416555404663086,0.17923307418823242,0.6283428072929382,2.2697713375091553,0.9968059062957764,,,,,,,
,,,,,,,,,,,,,,,,,,,,,,,,,,0.011312746442854404,0.09311525523662567,0.08186738193035126,0.011312746442854404,0.09311525523662567,0.08186738193035126,
,,,,,,,,,,,,,,,,,,,,,,,,,,0.005919219925999641,0.07129456102848053,0.06558657437562943,0.005919219925999641,0.07129456102848053,0.06558657437562943,
,,,,,,,,,,,,,,,,,,,,,,,,,,0.005543538834899664,0.06288599967956543,0.06100193411111832,0.005543538834899664,0.06288599967956543,0.06100193411111832,
,,,,,,,,,,,,,,,,,,,,,,,,,,0.005068880971521139,0.05962418392300606,0.05715104937553406,0.005068880971521139,0.05962418392300606,0.05715104937553406,
,,,,,,,,,,,,,,,,,,,,,,,,,,0.00474557327106595,0.05701694265007973,0.056373026221990585,0.00474557327106595,0.05701694265007973,0.056373026221990585,
,,,,,,,,,,,,,,,,,,,,,,,,,,0.0041215866804122925,0.054107338190078735,0.05237993597984314,0.0041215866804122925,0.054107338190078735,0.05237993597984314,
,,,,,,,,,,,,,,,,,,,,,,,,,,,,,,,,-0.67
4604320000.0,74.89,-0.09000000357627869,11990521856.0,17.000749726896906,160.0,-0.0007578857475891709,659456.0,1558.950442314148,8.727393807639316e-15,0.0,2.461536169052124,-0.02461535483598709,0.059517815709114075,-0.02461536042392254,5.587935447692871e-09,0.0,0.018801197409629822,0.34454479813575745,0.6738866762886493,-0.0015415791422128677,0.4719468355178833,0.017259616404771805,0.6033390760421753,240.9305510520935,0.9970424175262451,,,,,,,
4604320000.0,76.38,0.09000000357627869,12041169408.0,1821.6251866305265,161.0,0.0010624569840729237,663552.0,1561.1989839076996,8.576472865229334e-15,0.0,2.4409866333007812,-0.02440987341105938,0.048507239669561386,-0.024409865960478783,-7.450580596923828e-09,0.0,0.018821749836206436,0.3109402358531952,0.6754774109393421,0.07055488228797913,0.47044968605041504,0.08937662839889526,0.5458263158798218,2.2485415935516357,0.9970791339874268,,,,,,,
4604320000.0,81.5,0.4300000071525574,12041169408.0,1804.8888891223519,162.0,0.005317390896379948,667648.0,1563.4683756828308,9.450773497121645e-15,0.0,2.434903383255005,-0.024349043145775795,0.04836820811033249,-0.02434903383255005,-9.313225746154785e-09,0.0,0.06898385286331177,0.3033151924610138,0.6182393061215701,0.058923013508319855,0.4194622337818146,0.12790687382221222,0.4909062385559082,2.2693917751312256,0.997366189956665,,,,,,,
4604320000.0,80.27,0.4300000071525574,12041169408.0,1741.3483251253847,163.0,0.0019781412556767464,671744.0,1565.82057595253,8.656270145124267e-15,0.0,2.4243788719177246,-0.024243781343102455,0.031640663743019104,-0.024243788793683052,7.450580596923828e-09,0.0,0.030092768371105194,0.24978187680244446,0.7588476103232833,0.030599484220147133,0.45020630955696106,0.06069225072860718,0.5086454153060913,2.3522002696990967,0.9971706867218018,,,,,,,
4604320000.0,75.42,0.14000000059604645,12041169408.0,1696.973465671931,164.0,-0.0010662416461855173,675840.0,1568.234284877777,9.362302599846828e-15,0.0,2.372589349746704,-0.023725897073745728,0.051976289600133896,-0.02372589334845543,-2.7939677238464355e-09,0.0,-0.0023287986405193806,0.3224477171897888,0.7543862090615465,-0.005219738930463791,0.5169075131416321,-0.007548541761934757,0.6506283283233643,2.4137089252471924,0.9970183372497559,,,,,,,
4604320000.0,77.8,-0.10999999940395355,12041169408.0,1704.245417176762,165.0,-0.0018297494389116764,679936.0,1570.6376945972443,9.35536370594292e-15,0.0,2.407792568206787,-0.024077925831079483,0.04001029580831528,-0.024077925831079483,0.0,0.0,-0.027377348393201828,0.28158557415008545,0.7829892740936356,0.021309418603777885,0.5184327363967896,-0.006067931652069092,0.6044631004333496,2.403409719467163,0.9971771240234375,,,,,,,
4604320000.0,78.82,-0.3799999952316284,12041169408.0,1729.2918178005073,166.0,-0.003510060254484415,684032.0,1573.0062942504883,9.794248745365053e-15,0.0,2.3788414001464844,-0.023788411170244217,0.05626653879880905,-0.023788413032889366,2.7939677238464355e-09,0.0,-0.0179632306098938,0.3350191116333008,0.8142339043615991,-0.07959656417369843,0.6577991843223572,-0.09755979478359222,0.7772958874702454,2.3685996532440186,0.9980587959289551,,,,,,,
4604320000.0,76.52,-0.20000000298023224,12041169408.0,1754.3161749080841,167.0,0.0016804300248622894,688128.0,1575.3411071300507,9.47505962578532e-15,0.0,2.3674211502075195,-0.023674197494983673,0.06611902266740799,-0.023674210533499718,1.30385160446167e-08,0.0,0.03223560005426407,0.36225810647010803,0.5473106309339937,0.049831271171569824,0.4413697421550751,0.08206687122583389,0.5384159684181213,2.334812879562378,0.9967851638793945,,,,,,,
4604320000.0,75.43,0.2199999988079071,12041169408.0,1723.3982164598624,168.0,0.0013760995352640748,692224.0,1577.717806816101,9.586081928247836e-15,0.0,2.4126341342926025,-0.024126334115862846,0.06645441055297852,-0.024126341566443443,7.450580596923828e-09,0.0,0.03720015659928322,0.3627079725265503,0.608795213175533,0.03826463967561722,0.4739135503768921,0.07546478509902954,0.5799025893211365,2.376699686050415,0.9966840744018555,,,,,,,
4604320000.0,76.06,0.23000000417232513,12041169408.0,1801.3656493941157,169.0,0.0035209311172366142,696320.0,1579.9916372299194,9.820269597504705e-15,0.0,2.4342617988586426,-0.024342626333236694,0.06100107729434967,-0.024342617020010948,-1.0244548320770264e-08,0.0,0.04274896904826164,0.34670454263687134,0.7214720825744467,0.025509897619485855,0.5295116901397705,0.0682588741183281,0.6569391489028931,2.2738304138183594,0.9966320991516113,,,,,,,
4604320000.0,76.21,0.3100000023841858,12041169408.0,1845.8399451186133,170.0,-0.0006128512322902679,700416.0,1582.2106812000275,9.204442763532938e-15,0.0,2.4672293663024902,-0.024672290310263634,0.054386019706726074,-0.024672294035553932,3.725290298461914e-09,0.0,0.007754829712212086,0.32975512742996216,0.6562266078007568,0.057559698820114136,0.5012577772140503,0.06531453132629395,0.5624130964279175,2.2190439701080322,0.996757984161377,,,,,,,
4604320000.0,78.65,0.23999999463558197,12041169408.0,1809.1915194396897,171.0,0.0016863569617271423,704512.0,1584.4746758937836,9.617306950815419e-15,0.0,2.4890174865722656,-0.024890180677175522,0.07831651717424393,-0.024890175089240074,-5.587935447692871e-09,0.0,0.01279435958713293,0.39561033248901367,0.7381011033117572,0.049997009336948395,0.63433837890625,0.0627913773059845,0.7730379104614258,2.2639946937561035,0.9978978633880615,,,,,,,
4604320000.0,82.08,0.05000000074505806,12041169408.0,1798.9868405937875,172.0,0.0,708608.0,1586.751513004303,9.723125082850004e-15,0.0,2.5184144973754883,-0.025184137746691704,0.0878576785326004,-0.0251841451972723,7.450580596923828e-09,0.0,-0.025834472849965096,0.4184383749961853,0.7285988847909718,0.08704473078250885,0.6465474367141724,0.061210259795188904,0.8032036423683167,2.276837110519409,0.9966883659362793,,,,,,,
4604320000.0,79.45,-0.25999999046325684,12041169408.0,1776.5426524976488,173.0,-0.0027648485265672207,712704.0,1589.0571148395538,9.846290449644357e-15,0.0,2.5299203395843506,-0.02529919520020485,0.07832499593496323,-0.025299202650785446,6.51925802230835e-09,0.0,-0.033002618700265884,0.39446011185646057,0.5745193933184426,0.08341330289840698,0.5285099744796753,0.0504106804728508,0.6047323942184448,2.3056018352508545,0.9964733123779297,,,,,,,
4604320000.0,83.81,-0.25999999046325684,12041169408.0,1782.3127233613802,174.0,-2.3283064365386963e-10,716800.0,1591.3552525043488,9.775166787129308e-15,0.0,2.5173211097717285,-0.025173213332891464,0.10976986587047577,-0.025173209607601166,-3.725290298461914e-09,0.0,-0.012789333239197731,0.4684332609176636,0.5851256378390718,0.05868921056389809,0.582789421081543,0.0458998829126358,0.7272595763206482,2.298137664794922,0.9972290992736816,,,,,,,
4604320000.0,83.87,-0.12999999523162842,12041169408.0,1741.3193791571402,175.0,-0.00015383222489617765,720896.0,1593.7074918746948,9.697104230710352e-15,0.0,2.512458324432373,-0.025124570354819298,0.07417742162942886,-0.025124583393335342,1.30385160446167e-08,0.0,0.004352266434580088,0.38519102334976196,0.7009139510755931,0.12900426983833313,0.5987165570259094,0.13335655629634857,0.7043330669403076,2.3522393703460693,0.9969630241394043,,,,,,,
4604320000.0,81.98,0.019999999552965164,12041169408.0,1783.7133669154366,176.0,-1.1641532182693481e-10,724992.0,1596.0038249492645,9.7682278932254e-15,0.0,2.5190021991729736,-0.025190025568008423,0.06961823999881744,-0.025190021842718124,-4.6566128730773926e-09,0.0,0.007613430265337229,0.37311193346977234,0.6562668969001011,0.1024109423160553,0.5399118065834045,0.11002437770366669,0.6363974809646606,2.296333074569702,0.9972102642059326,,,,,,,
4604320000.0,82.49,0.03999999910593033,12041169408.0,1750.9392447992734,177.0,0.0004621295374818146,729088.0,1598.3431408405304,9.879250195687916e-15,0.0,2.507171392440796,-0.025071721524000168,0.06039460748434067,-0.02507171407341957,-7.450580596923828e-09,0.0,-0.001477748155593872,0.3475866913795471,0.6502398285335018,0.10932287573814392,0.48732441663742065,0.10784513503313065,0.5877301692962646,2.339315891265869,0.9969546794891357,,,,,,,
4604320000.0,83.56,0.14000000059604645,12041169408.0,1794.5775126026158,178.0,0.0009254732867702842,733184.0,1600.6255722045898,9.912209941731476e-15,0.0,2.4681568145751953,-0.024681564420461655,0.05792957544326782,-0.024681568145751953,3.725290298461914e-09,0.0,-0.004893802106380463,0.3403872847557068,0.6432691393193746,0.2052859365940094,0.4557609260082245,0.20039214193820953,0.569905698299408,2.2824313640594482,0.9970641136169434,,,,,,,
4604320000.0,83.76,0.27000001072883606,12041169408.0,1783.1622104570909,179.0,0.005250287242233753,737280.0,1602.9226150512695,1.0689366058969085e-14,0.0,2.468536376953125,-0.02468535304069519,0.05593208223581314,-0.024685362353920937,9.313225746154785e-09,0.0,0.0411011204123497,0.3319665193557739,0.6038551777734829,0.16162681579589844,0.4741073250770569,0.20272792875766754,0.5274329781532288,2.2970428466796875,0.9980945587158203,,,,,,,
4604320000.0,84.82,0.5400000214576721,12041169408.0,1716.978365308218,180.0,0.004173865541815758,741376.0,1605.3082013130188,1.0085682289329156e-14,0.0,2.440852165222168,-0.024408522993326187,0.061889588832855225,-0.024408521130681038,-1.862645149230957e-09,0.0,0.041704244911670685,0.3493848145008087,0.7993330682681409,0.04078613966703415,0.6965227127075195,0.08249038457870483,0.7799487709999084,2.3855862617492676,0.9970695972442627,,,,,,,
4604320000.0,85.7,0.6700000166893005,12041169408.0,1742.0857126893454,181.0,0.003711775876581669,745472.0,1607.6594059467316,1.0937431516033769e-14,0.0,2.452716827392578,-0.02452717535197735,0.07085099816322327,-0.02452716790139675,-7.450580596923828e-09,0.0,0.04045344144105911,0.37429895997047424,0.6153216272982058,0.162462055683136,0.4725815951824188,0.2029155194759369,0.6034895777702332,2.3512046337127686,0.9970018863677979,,,,,,,
4604320000.0,88.07,0.3700000047683716,12041169408.0,1780.352488020095,182.0,0.0013928088592365384,749568.0,1609.9600739479065,1.1570605584765303e-14,0.0,2.396268844604492,-0.02396269328892231,0.08415750414133072,-0.023962687700986862,-5.587935447692871e-09,0.0,-0.030443336814641953,0.40918096899986267,0.5953777945746728,0.21639660000801086,0.5389930605888367,0.1859532594680786,0.6432660222053528,2.3006680011749268,0.9971566200256348,,,,,,,
4604320000.0,87.84,0.5099999904632568,12041169408.0,1707.5194824685711,183.0,0.006196053232997656,753664.0,1612.3588752746582,1.1896733598248943e-14,0.0,2.4376609325408936,-0.024376600980758667,0.05373179540038109,-0.024376608431339264,6.51925802230835e-09,0.0,0.05445774644613266,0.32330089807510376,0.648532383137396,0.2430223822593689,0.507443368434906,0.29748010635375977,0.5453360080718994,2.398801326751709,0.9972648620605469,,,,,,,
4604320000.0,82.88,0.6399999856948853,12041169408.0,1758.3199650871552,184.0,0.0027902156580239534,757760.0,1614.6883716583252,1.1319070680748666e-14,0.0,2.370107889175415,-0.02370108664035797,0.051901161670684814,-0.023701079189777374,-7.450580596923828e-09,0.0,-0.005899394862353802,0.3221690058708191,0.6890065664339167,0.22553952038288116,0.5135087966918945,0.2196401208639145,0.5777076482772827,2.329496383666992,0.9968430995941162,,,,,,,
4604320000.0,84.19,0.4099999964237213,12041169408.0,1779.9654949300125,185.0,0.0026370834093540907,761856.0,1616.989539861679,1.1339887362460388e-14,0.0,2.391876220703125,-0.0239187553524971,0.08659656345844269,-0.02391876094043255,4.6566128730773926e-09,0.0,-0.025886965915560722,0.41540956497192383,0.686950520213421,0.25042015314102173,0.634208083152771,0.22453317046165466,0.7424548268318176,2.301168203353882,0.9966704845428467,,,,,,,
4604320000.0,82.33,0.41999998688697815,12041169408.0,1727.751131142539,186.0,0.0035722930915653706,765952.0,1619.3602516651154,1.1837753000065732e-14,0.0,2.373157501220703,-0.023731574416160583,0.04048989713191986,-0.023731574416160583,0.0,0.0,-0.0039036953821778297,0.28457748889923096,0.6725294969205056,0.23797965049743652,0.4137100577354431,0.23407596349716187,0.4972953498363495,2.3707118034362793,0.9967536926269531,,,,,,,
4604320000.0,79.6,0.25999999046325684,12041169408.0,1745.5631504952082,187.0,0.0021768263541162014,770048.0,1621.706772327423,1.2457049280989452e-14,0.0,2.344935894012451,-0.02344934642314911,0.06345449388027191,-0.023449357599020004,1.1175870895385742e-08,0.0,-0.02280736155807972,0.3555554449558258,0.6364950188631013,0.22850394248962402,0.47484010457992554,0.20569659769535065,0.5897285342216492,2.3465206623077393,0.9967746734619141,,,,,,,
4604320000.0,85.57,0.0,12041169408.0,1826.5858494443755,188.0,-0.0001556124771013856,774144.0,1623.9492073059082,1.186550857568136e-14,0.0,2.391976833343506,-0.023919764906167984,0.07032795250415802,-0.023919768631458282,3.725290298461914e-09,0.0,-0.018491029739379883,0.3746308386325836,0.5899267390461881,0.1759965568780899,0.4850911498069763,0.15750551223754883,0.5850228071212769,2.2424349784851074,0.9968280792236328,,,,,,,
4604320000.0,89.65,0.25,12041169408.0,1793.4766835294429,189.0,0.0031148744747042656,778240.0,1626.2330396175385,1.2660011927678738e-14,0.0,2.3542346954345703,-0.02354235202074051,0.05892486125230789,-0.02354234643280506,-5.587935447692871e-09,0.0,0.03284130245447159,0.34175968170166016,0.7944179548694483,0.04038045555353165,0.7110591530799866,0.07322176545858383,0.7537515759468079,2.283832311630249,0.9968252182006836,,,,,,,
4604320000.0,86.66,0.4300000071525574,12041169408.0,1778.2723056614598,190.0,0.0059249429032206535,782336.0,1628.5363988876343,1.2689502226770344e-14,0.0,2.343360424041748,-0.0234336256980896,0.04907531291246414,-0.02343360334634781,-2.2351741790771484e-08,0.0,0.042653925716876984,0.31041067838668823,0.6626854695685978,0.17522075772285461,0.4676873981952667,0.2178746908903122,0.5344647765159607,2.303359270095825,0.9971039295196533,,,,,,,
4604320000.0,87.44,0.5799999833106995,12041169408.0,1738.9392232064927,191.0,0.0018730872543528676,786432.0,1630.8918578624725,1.2101430968414206e-14,0.0,2.3334834575653076,-0.023334838449954987,0.049416735768318176,-0.023334834724664688,-3.725290298461914e-09,0.0,-0.0003617163747549057,0.3144160807132721,0.7312365952763628,0.0846036896109581,0.4801678955554962,0.08424197137355804,0.6064844727516174,2.355458974838257,0.9970643520355225,,,,,,,
,,,,,,,,,,,,,,,,,,,,,,,,,,0.01599711924791336,0.07897006720304489,0.06348808854818344,0.01599711924791336,0.07897006720304489,0.06348808854818344,
,,,,,,,,,,,,,,,,,,,,,,,,,,0.010899624787271023,0.06001736596226692,0.05500265955924988,0.010899624787271023,0.06001736596226692,0.05500265955924988,
,,,,,,,,,,,,,,,,,,,,,,,,,,0.006258491892367601,0.05464254319667816,0.049680233001708984,0.006258491892367601,0.05464254319667816,0.049680233001708984,
,,,,,,,,,,,,,,,,,,,,,,,,,,0.006295531988143921,0.05163835734128952,0.04770170897245407,0.006295531988143921,0.05163835734128952,0.04770170897245407,
,,,,,,,,,,,,,,,,,,,,,,,,,,0.005075106862932444,0.047672245651483536,0.04417729377746582,0.005075106862932444,0.047672245651483536,0.04417729377746582,
,,,,,,,,,,,,,,,,,,,,,,,,,,0.005877455696463585,0.04575733095407486,0.04316474869847298,0.005877455696463585,0.04575733095407486,0.04316474869847298,
,,,,,,,,,,,,,,,,,,,,,,,,,,,,,,,,0.26
4605304000.0,87.0,0.23000000417232513,11990521856.0,17.031023235384822,192.0,0.0004688547342084348,790528.0,1871.394142627716,1.24310284288498e-14,0.0,2.2711691856384277,-0.022711705416440964,0.05728698521852493,-0.02271169051527977,-1.4901161193847656e-08,0.0,0.028312278911471367,0.3373427987098694,0.7664578076086465,0.005571445450186729,0.6230586171150208,0.033883728086948395,0.6980535984039307,240.50228476524353,0.9966833591461182,,,,,,,
4605304000.0,82.17,0.11999999731779099,12041169408.0,1797.7159817330573,193.0,0.0037548509426414967,794624.0,1873.672589302063,1.3624518180321843e-14,0.0,2.214811086654663,-0.02214810997247696,0.05536261945962906,-0.02214810997247696,0.0,0.0,0.02078721486032009,0.3321446478366852,0.771766687436402,0.04967930167913437,0.705237865447998,0.07046651840209961,0.6952447891235352,2.278446674346924,0.9966185092926025,,,,,,,
4605304000.0,79.72,0.3700000047683716,12041169408.0,1761.4100804072395,194.0,0.0007829598616808653,798720.0,1875.9979989528656,1.4132792158783047e-14,0.0,2.1603891849517822,-0.021603891626000404,0.0413338802754879,-0.021603891626000404,0.0,0.0,0.015050053596496582,0.2871609330177307,0.7560171183062467,0.023600716143846512,0.5530966520309448,0.038650766015052795,0.5813606977462769,2.3254096508026123,0.9964046478271484,,,,,,,
4605304000.0,80.4,0.3700000047683716,12041169408.0,1728.0229299726955,195.0,0.004858620464801788,802816.0,1878.3683378696442,1.4361775657611986e-14,0.0,2.2018351554870605,-0.022018350660800934,0.0696251168847084,-0.022018350660800934,0.0,0.0,0.04532298445701599,0.3704450726509094,0.7259198521572787,0.08558231592178345,0.5398435592651367,0.13090530037879944,0.7075955271720886,2.3703389167785645,0.9967195987701416,,,,,,,
4605304000.0,84.05,0.30000001192092896,12041169408.0,1706.8173350775191,196.0,0.0018826276063919067,806912.0,1880.7681260108948,1.4079015731027766e-14,0.0,2.215569019317627,-0.02215568907558918,0.0500381737947464,-0.02215568907558918,0.0,0.0,0.022725548595190048,0.315569669008255,0.8445699716692173,0.046840161085128784,0.7603825330734253,0.06956571340560913,0.8004381060600281,2.3997881412506104,0.9965653419494629,,,,,,,
4605304000.0,85.73,0.47999998927116394,12041169408.0,1810.1873636158841,197.0,0.0043954998254776,811008.0,1883.0308752059937,1.3681764055029078e-14,0.0,2.2572169303894043,-0.022572169080376625,0.052375417202711105,-0.022572169080376625,0.0,0.0,0.014879086054861546,0.32334962487220764,0.6557505196423108,0.19740962982177734,0.4165882170200348,0.21228870749473572,0.5511067509651184,2.262749195098877,0.9965310096740723,,,,,,,
4605304000.0,86.6,0.6600000262260437,12041169408.0,1790.7394699183185,198.0,0.004554116167128086,815104.0,1885.318198442459,1.423514084386568e-14,0.0,2.273681879043579,-0.02273682877421379,0.06596746295690536,-0.022736817598342896,-1.0244548320770264e-08,0.0,0.05341241508722305,0.35932374000549316,0.41517810559930146,0.09702195227146149,0.3533698320388794,0.15043437480926514,0.4698660969734192,2.287323236465454,0.9965658187866211,,,,,,,
4605304000.0,89.48,0.6899999976158142,12041169408.0,1763.5194021972716,199.0,0.004873921163380146,819200.0,1887.640826702118,1.3654008479413449e-14,0.0,2.313791036605835,-0.0231378935277462,0.06557102501392365,-0.023137910291552544,1.5832483768463135e-08,0.0,0.03766343742609024,0.36021551489830017,0.6606664670773668,0.12584763765335083,0.5745508074760437,0.16351106762886047,0.6183708310127258,2.3226282596588135,0.9970548152923584,,,,,,,
4605304000.0,87.52,0.3100000023841858,12041169408.0,1816.0687988759316,200.0,-0.0023602633737027645,823296.0,1889.8962478637695,1.2774503677093207e-14,0.0,2.325800657272339,-0.023258009925484657,0.08974186331033707,-0.02325800620019436,-3.725290298461914e-09,0.0,-0.04701373353600502,0.42108991742134094,0.6663565905325128,0.05332881212234497,0.5808849930763245,0.006315079517662525,0.7290101051330566,2.2554211616516113,0.9963791370391846,,,,,,,
4605304000.0,85.64,-0.20999999344348907,12041169408.0,1802.8734100382405,201.0,-0.0003150185802951455,827392.0,1892.168176651001,1.2405007576710148e-14,0.0,2.3826310634613037,-0.02382631227374077,0.0825790986418724,-0.02382631041109562,-1.862645149230957e-09,0.0,-0.0034682522527873516,0.4064314365386963,0.6125500809484206,0.12989738583564758,0.5872625708580017,0.12642912566661835,0.652949333190918,2.2719287872314453,0.9967465400695801,,,,,,,
4605304000.0,84.48,-0.029999999329447746,12041169408.0,1821.6352305663813,202.0,0.0007879995973780751,831488.0,1894.4167058467865,1.2470927068797266e-14,0.0,2.3496861457824707,-0.023496871814131737,0.09279406070709229,-0.02349686063826084,-1.1175870895385742e-08,0.0,-0.023786772042512894,0.4301947057247162,0.6385162994410415,0.1188354343175888,0.5889776349067688,0.09504866600036621,0.7155181765556335,2.2485291957855225,0.9963314533233643,,,,,,,
4605304000.0,86.19,0.23999999463558197,12041169408.0,1771.2240688708298,203.0,0.0020503373816609383,835584.0,1896.7292308807373,1.2913281555171352e-14,0.0,2.423008680343628,-0.02423008345067501,0.06504964828491211,-0.02423008717596531,3.4924596548080444e-09,0.0,-0.017388252541422844,0.3603174090385437,0.5609885762449526,0.189043790102005,0.4618271589279175,0.171655535697937,0.5438101887702942,2.3125250339508057,0.9963340759277344,,,,,,,
4605304000.0,85.69,0.10999999940395355,12041169408.0,1831.3434129764141,204.0,-0.0009470790973864496,839680.0,1898.9658403396606,1.2463988174893359e-14,0.0,2.4113502502441406,-0.024113520979881287,0.1348521113395691,-0.024113502353429794,-1.862645149230957e-08,0.0,-0.058624476194381714,0.5160740613937378,0.45449335827635207,0.19564862549304962,0.48451098799705505,0.1370241492986679,0.6987341642379761,2.23660945892334,0.9969570636749268,,,,,,,
4605304000.0,84.5,0.10000000149011612,12041169408.0,1766.424576643515,205.0,0.0018968821968883276,843776.0,1901.284648656845,1.2663481374630692e-14,0.0,2.400120735168457,-0.024001216515898705,0.05897846072912216,-0.02400120720267296,-9.313225746154785e-09,0.0,-0.05647096782922745,0.3388155698776245,0.515920332590773,0.24865607917308807,0.3738635778427124,0.19218510389328003,0.4869730472564697,2.3188083171844482,0.9965126514434814,,,,,,,
4605304000.0,84.25,0.3799999952316284,12041169408.0,1843.1467178488876,206.0,0.0015825012233108282,847872.0,1903.506935119629,1.3659212649841379e-14,0.0,2.3186123371124268,-0.02318611927330494,0.08375036716461182,-0.023186122998595238,3.725290298461914e-09,0.0,-0.015160618349909782,0.4090375304222107,0.5760525681676536,0.17745190858840942,0.49108830094337463,0.16229131817817688,0.6282134056091309,2.2222864627838135,0.996466875076294,,,,,,,
4605304000.0,87.44,0.36000001430511475,12041169408.0,1755.4435189410528,207.0,0.004592410288751125,851968.0,1905.8402485847473,1.1993878112903644e-14,0.0,2.360091209411621,-0.023600904271006584,0.07462593913078308,-0.02360091172158718,7.450580596923828e-09,0.0,0.036241836845874786,0.3846745789051056,0.48723429038678057,0.21402578055858612,0.4087599813938141,0.2502676248550415,0.5371975302696228,2.333313465118408,0.9969065189361572,,,,,,,
4605304000.0,89.07,0.3199999928474426,12041169408.0,1841.9485845836093,208.0,0.0003170279087498784,856064.0,1908.0639805793762,1.1374581831979924e-14,0.0,2.371861219406128,-0.02371859923005104,0.1296999156475067,-0.023718612268567085,1.30385160446167e-08,0.0,-0.06574264168739319,0.5051138997077942,0.3329533076587272,0.1803644448518753,0.36532625555992126,0.11462180316448212,0.6184594035148621,2.2237319946289062,0.9983477592468262,,,,,,,
4605304000.0,87.91,0.33000001311302185,12041169408.0,1719.167298667265,209.0,0.005075978580862284,860160.0,1910.4465293884277,1.202336841199525e-14,0.0,2.37990665435791,-0.02379906177520752,0.054004259407520294,-0.023799065500497818,4.6566128730773926e-09,0.0,0.028752829879522324,0.3274262547492981,0.6659678279585184,0.19629165530204773,0.42232540249824524,0.22504448890686035,0.5665253400802612,2.3825488090515137,0.9969041347503662,,,,,,,
4605304000.0,84.67,0.5199999809265137,12041169408.0,1805.77901868512,210.0,0.0046053696423769,864256.0,1912.7148025035858,1.1884590533917105e-14,0.0,2.3271713256835938,-0.023271705955266953,0.04513533413410187,-0.02327171340584755,7.450580596923828e-09,0.0,0.0041567664593458176,0.300458699464798,0.5485328000767773,0.14160758256912231,0.3184349834918976,0.14576435089111328,0.4471689760684967,2.268273115158081,0.997107982635498,,,,,,,
4605304000.0,81.18,0.5,12041169408.0,1748.6459274459091,211.0,0.003180281026288867,868352.0,1915.0571863651276,1.1223660889569942e-14,0.0,2.364373207092285,-0.02364373579621315,0.03722474351525307,-0.02364373207092285,-3.725290298461914e-09,0.0,0.02435324341058731,0.2717985510826111,0.6260343675451404,0.12275376915931702,0.3083540201187134,0.14710700511932373,0.44445857405662537,2.342383861541748,0.9970133304595947,,,,,,,
4605304000.0,80.58,0.3100000023841858,12041169408.0,1741.6768586966198,212.0,0.002228799741715193,872448.0,1917.408942937851,1.193663223819641e-14,0.0,2.382768392562866,-0.023827679455280304,0.04307148605585098,-0.023827683180570602,3.725290298461914e-09,0.0,-0.0015299255028367043,0.2935330867767334,0.6230774065765559,0.13245540857315063,0.3192793130874634,0.1309254914522171,0.47811344265937805,2.3517565727233887,0.9969615936279297,,,,,,,
4605304000.0,81.19,0.41999998688697815,12041169408.0,1790.7829621235053,213.0,0.005097482353448868,876544.0,1919.6962106227875,1.3249817909510853e-14,0.0,2.2531864643096924,-0.022531863301992416,0.06506158411502838,-0.022531863301992416,-9.313225746154785e-10,0.0,0.020173169672489166,0.36020535230636597,0.5518858712753034,0.1630786955356598,0.39859631657600403,0.18325185775756836,0.5380911231040955,2.2872676849365234,0.9971041679382324,,,,,,,
4605304000.0,84.31,0.2800000011920929,12041169408.0,1802.1630720337828,214.0,-0.000797146640252322,880640.0,1921.969034910202,1.3931564235569738e-14,0.0,2.2197766304016113,-0.022197779268026352,0.06622521579265594,-0.022197766229510307,-1.210719347000122e-08,0.0,-0.03283427655696869,0.362497478723526,0.7240678911577905,0.07899992167949677,0.4883013665676117,0.04616564139723778,0.690087080001831,2.272824287414551,0.9977672100067139,,,,,,,
4605304000.0,85.83,0.1599999964237213,12041169408.0,1827.5124827605648,215.0,0.0028725164011120796,884736.0,1924.2103328704834,1.3206449822611432e-14,0.0,2.230482816696167,-0.0223048347979784,0.04562758654356003,-0.022304827347397804,-7.450580596923828e-09,0.0,0.02023232728242874,0.3014432191848755,0.6854134021213593,0.1514737457036972,0.3806966245174408,0.17170608043670654,0.5374467372894287,2.241297960281372,0.9965617656707764,,,,,,,
4605304000.0,87.43,0.38999998569488525,12041169408.0,1775.9391884020158,216.0,0.0028752880170941353,888832.0,1926.5167181491852,1.407728100755179e-14,0.0,2.2001914978027344,-0.02200191654264927,0.05356539040803909,-0.02200191468000412,-1.862645149230957e-09,0.0,0.029563527554273605,0.3260103166103363,0.6393186249809845,0.15183287858963013,0.4543085992336273,0.18139640986919403,0.5428370833396912,2.3063852787017822,0.9969193935394287,,,,,,,
4605304000.0,86.27,0.41999998688697815,12041169408.0,1765.8136273336052,217.0,0.0027178972959518433,892928.0,1928.8363287448883,1.4190038033490282e-14,0.0,2.2482452392578125,-0.02248244360089302,0.044707611203193665,-0.022482451051473618,7.450580596923828e-09,0.0,0.009079772979021072,0.2989223897457123,0.6838109456977838,0.15516823530197144,0.389911413192749,0.1642480045557022,0.5316001176834106,2.319610595703125,0.9968681335449219,,,,,,,
4605304000.0,80.77,0.36000001430511475,12041169408.0,1767.8860320195618,218.0,0.003680325113236904,897024.0,1931.1532201766968,1.3848297508722851e-14,0.0,2.24387526512146,-0.02243875153362751,0.053487684577703476,-0.02243875153362751,0.0,0.0,-0.003990700468420982,0.327086478471756,0.6450518932355009,0.21827372908592224,0.4210182726383209,0.2142830193042755,0.5490098595619202,2.3168914318084717,0.996990442276001,,,,,,,
4605304000.0,85.89,0.4399999976158142,12041169408.0,1762.8225470619743,219.0,0.003203797619789839,901120.0,1933.4767665863037,1.3612375115990005e-14,0.0,2.2403013706207275,-0.022403011098504066,0.06157897040247917,-0.022403012961149216,1.3969838619232178e-09,0.0,-0.02422955632209778,0.3501439690589905,0.6305969067205732,0.27064788341522217,0.4040737450122833,0.2464183270931244,0.5760980248451233,2.3235464096069336,0.9967687129974365,,,,,,,
4605304000.0,88.22,0.550000011920929,12041169408.0,1815.361454531929,220.0,0.006252819672226906,905216.0,1935.733066558838,1.434789786980417e-14,0.0,2.241764545440674,-0.022417651489377022,0.04310621693730354,-0.022417644038796425,-7.450580596923828e-09,0.0,0.018038121983408928,0.2931007146835327,0.7737872828104533,0.24971431493759155,0.4690350592136383,0.26775240898132324,0.6162520051002502,2.2562999725341797,0.9967696666717529,,,,,,,
4605304000.0,83.06,0.7300000190734863,12041169408.0,1804.748392627158,221.0,0.007221316918730736,909312.0,1938.0026350021362,1.297399687683054e-14,0.0,2.2581019401550293,-0.022581011056900024,0.041895538568496704,-0.02258101850748062,7.450580596923828e-09,0.0,0.032497331500053406,0.2876720428466797,0.744238715144733,0.3153923451900482,0.4904858469963074,0.34788966178894043,0.5688270926475525,2.26956844329834,0.9966516494750977,,,,,,,
4605304000.0,84.98,0.8199999928474426,12041169408.0,1750.433835185924,222.0,0.0033718771301209927,913408.0,1940.3426263332367,1.3645334862033565e-14,0.0,2.1988894939422607,-0.02198890969157219,0.06538752466440201,-0.021988894790410995,-1.4901161193847656e-08,0.0,-0.0025162273086607456,0.36166372895240784,0.7162518667596509,0.18196216225624084,0.5922520160675049,0.17944593727588654,0.6789510250091553,2.339991331100464,0.997028112411499,,,,,,,
4605304000.0,83.94,0.5400000214576721,12041169408.0,1789.8480653293268,223.0,0.0030524679459631443,917504.0,1942.631088733673,1.3279308208602458e-14,0.0,2.171752452850342,-0.021717526018619537,0.06020243465900421,-0.021717524155974388,-1.862645149230957e-09,0.0,-0.0024390770122408867,0.34702780842781067,0.7506949416242117,0.18318256735801697,0.5849368572235107,0.1807434856891632,0.6950223445892334,2.2884624004364014,0.9969487190246582,,,,,,,
,,,,,,,,,,,,,,,,,,,,,,,,,,0.005793307442218065,0.07671524584293365,0.06413116306066513,0.005793307442218065,0.07671524584293365,0.06413116306066513,
,,,,,,,,,,,,,,,,,,,,,,,,,,0.004527978599071503,0.06082896143198013,0.05735631659626961,0.004527978599071503,0.06082896143198013,0.05735631659626961,
,,,,,,,,,,,,,,,,,,,,,,,,,,0.004646432586014271,0.055872343480587006,0.05214430019259453,0.004646432586014271,0.055872343480587006,0.05214430019259453,
,,,,,,,,,,,,,,,,,,,,,,,,,,0.004656090866774321,0.05294591188430786,0.04969527944922447,0.004656090866774321,0.05294591188430786,0.04969527944922447,
,,,,,,,,,,,,,,,,,,,,,,,,,,0.004072281531989574,0.04908232390880585,0.04668506234884262,0.004072281531989574,0.04908232390880585,0.04668506234884262,
,,,,,,,,,,,,,,,,,,,,,,,,,,0.004102167207747698,0.047060392796993256,0.044342249631881714,0.004102167207747698,0.047060392796993256,0.044342249631881714,
,,,,,,,,,,,,,,,,,,,,,,,,,,,,,,,,0.05
4605612000.0,82.66,0.6000000238418579,11990521856.0,17.010907747417008,224.0,0.005948901176452637,921600.0,2183.417768716812,1.3249817909510853e-14,0.0,2.298283100128174,-0.022982848808169365,0.04611920565366745,-0.022982830181717873,-1.862645149230957e-08,0.0,0.02685738168656826,0.3025548756122589,0.7304482813743527,0.2324121594429016,0.5720062851905823,0.2592695355415344,0.5827510952949524,240.78667998313904,0.9969725608825684,,,,,,,
4605612000.0,85.87,0.4699999988079071,12041169408.0,1769.4284500718695,225.0,0.0017709271050989628,925696.0,2185.732640504837,1.293062878993112e-14,0.0,2.248121500015259,-0.02248121052980423,0.04061571881175041,-0.022481214255094528,3.725290298461914e-09,0.0,0.019010182470083237,0.28441131114959717,0.7132145071296103,0.1548474133014679,0.47411102056503296,0.17385758459568024,0.5310901403427124,2.3148717880249023,0.9970283508300781,,,,,,,
4605612000.0,83.62,0.3199999928474426,12041169408.0,1791.578887740147,226.0,0.004997990094125271,929792.0,2188.0188920497894,1.330532906074211e-14,0.0,2.2510480880737305,-0.022510476410388947,0.029225513339042664,-0.022510480135679245,3.725290298461914e-09,0.0,0.00048540357965976,0.24179549515247345,0.8181884911176899,0.26184847950935364,0.48935186862945557,0.26233386993408203,0.5670710802078247,2.2862515449523926,0.9966206550598145,,,,,,,
4605612000.0,83.67,0.5099999904632568,12041169408.0,1772.467792684068,227.0,0.005484398454427719,933888.0,2190.329794406891,1.3157877565284082e-14,0.0,2.183023691177368,-0.021830232813954353,0.05313239246606827,-0.021830236539244652,3.725290298461914e-09,0.0,0.041816771030426025,0.32332903146743774,0.8411753253615273,0.20299023389816284,0.722791314125061,0.24480700492858887,0.8113078474998474,2.3109023571014404,0.9968314170837402,,,,,,,
4605612000.0,87.27,0.6100000143051147,12041169408.0,1804.7265901385333,228.0,0.004358160309493542,937984.0,2192.599390268326,1.2548989625216223e-14,0.0,2.296931743621826,-0.022969316691160202,0.06582855433225632,-0.022969316691160202,0.0,0.0,-0.014063054695725441,0.36261749267578125,0.7054426200213054,0.29275113344192505,0.5268665552139282,0.27868807315826416,0.668134331703186,2.2695958614349365,0.9971120357513428,,,,,,,
4605612000.0,83.56,0.6600000262260437,12041169408.0,1764.8313668188837,229.0,0.005170492921024561,942080.0,2194.9202919006348,1.3385126340637044e-14,0.0,2.2990293502807617,-0.02299029380083084,0.04306689649820328,-0.02299029380083084,0.0,0.0,-0.0006035063415765762,0.2935207784175873,0.8024153642298559,0.2868393063545227,0.6399819850921631,0.2862358093261719,0.6603319048881531,2.32090163230896,0.9966747760772705,,,,,,,
4605612000.0,81.98,0.6299999952316284,12041169408.0,1819.9790927515232,230.0,0.004692192655056715,946176.0,2197.170867204666,1.2405007576710148e-14,0.0,2.306966543197632,-0.02306966856122017,0.034360773861408234,-0.02306966483592987,-2.7939677238464355e-09,0.0,-0.0055463435128331184,0.2621212601661682,0.7723050827501708,0.2862100303173065,0.5448731780052185,0.2806636691093445,0.5493202209472656,2.250575304031372,0.9968235492706299,,,,,,,
4605612000.0,90.38,0.8199999928474426,12041169408.0,1759.4930065253313,231.0,0.008584052324295044,950272.0,2199.498810529709,1.326196097384269e-14,0.0,2.348362922668457,-0.023483620956540108,0.03964509814977646,-0.023483628407120705,7.450580596923828e-09,0.0,0.0036504659801721573,0.2815958559513092,0.7350292790017394,0.39940619468688965,0.5354840755462646,0.40305665135383606,0.547050416469574,2.3279433250427246,0.996819257736206,,,,,,,
4605612000.0,87.71,0.7900000214576721,12041169408.0,1782.5466585140648,232.0,0.004862126428633928,954368.0,2201.796646595001,1.407728100755179e-14,0.0,2.3471550941467285,-0.02347155287861824,0.07334139198064804,-0.02347155101597309,-9.313225746154785e-10,0.0,-0.014861279167234898,0.38275015354156494,0.7447367830924889,0.22361013293266296,0.6468592286109924,0.20874884724617004,0.7575674653053284,2.2978360652923584,0.9967868328094482,,,,,,,
4605612000.0,83.83,0.550000011920929,12041169408.0,1762.4163778354039,233.0,0.003406243398785591,958464.0,2204.120728492737,1.2758891165809416e-14,0.0,2.3060667514801025,-0.02306065522134304,0.07239209115505219,-0.023060666397213936,1.1175870895385742e-08,0.0,-0.013489259406924248,0.38031241297721863,0.5896307980507159,0.29158341884613037,0.518866240978241,0.27809417247772217,0.5936809182167053,2.3240818977355957,0.9968128204345703,,,,,,,
4605612000.0,91.44,0.30000001192092896,12041169408.0,1827.5739158750046,234.0,-0.00016220402903854847,962560.0,2206.361951112747,1.3319206848549925e-14,0.0,2.3607237339019775,-0.02360723726451397,0.0952899307012558,-0.02360723726451397,0.0,0.0,-0.035158921033144,0.43518954515457153,0.6320092891020604,0.3333119750022888,0.6013888120651245,0.2981530725955963,0.7173978090286255,2.241222620010376,0.9969241619110107,,,,,,,
4605612000.0,92.33,0.6299999952316284,12041169408.0,1783.0772623224498,235.0,0.009573382325470448,966656.0,2208.6591033935547,1.182734465920987e-14,0.0,2.4017529487609863,-0.02401752397418022,0.05478166043758392,-0.02401752956211567,5.587935447692871e-09,0.0,0.012214893475174904,0.33081841468811035,0.7242767708343354,0.4407500624656677,0.5767461657524109,0.4529649019241333,0.6300180554389954,2.297152280807495,0.9967336654663086,,,,,,,
4605612000.0,92.47,1.0800000429153442,12041169408.0,1810.3754464854,236.0,0.008118403144180775,970752.0,2210.9216175079346,1.2746748101477579e-14,0.0,2.3378000259399414,-0.02337798662483692,0.05479814484715462,-0.023377999663352966,1.30385160446167e-08,0.0,0.044742777943611145,0.32805585861206055,0.7185823976302199,0.34700319170951843,0.5272718071937561,0.3917459547519684,0.6184037923812866,2.262514114379883,0.9966552257537842,,,,,,,
4605612000.0,93.33,1.1299999952316284,12041169408.0,1728.3349784162717,237.0,0.007149235811084509,974848.0,2213.2915284633636,1.2507356261792779e-14,0.0,2.3724825382232666,-0.023724820464849472,0.0477345772087574,-0.02372482419013977,4.6566128730773926e-09,0.0,-0.003814523108303547,0.30899500846862793,0.7384507523457353,0.378821462392807,0.5126779079437256,0.37500691413879395,0.6041916012763977,2.369910955429077,0.9968173503875732,,,,,,,
4605612000.0,91.79,0.7900000214576721,12041169408.0,1827.445805288528,238.0,0.003414749400690198,978944.0,2215.5329082012177,1.288205653260377e-14,0.0,2.3399314880371094,-0.023399313911795616,0.10849067568778992,-0.023399313911795616,0.0,0.0,-0.058829423040151596,0.4621391296386719,0.7101055245994474,0.34295985102653503,0.7590711116790771,0.28413042426109314,0.8583270311355591,2.241379737854004,0.9967460632324219,,,,,,,
4605612000.0,91.93,0.5899999737739563,12041169408.0,1739.249416440932,239.0,0.002439515432342887,983040.0,2217.8879470825195,1.3601966775134144e-14,0.0,2.356193780899048,-0.02356194518506527,0.09823213517665863,-0.023561937734484673,-7.450580596923828e-09,0.0,-0.00878523662686348,0.4432099461555481,0.49556332868912467,0.21753892302513123,0.43987125158309937,0.20875369012355804,0.6240310072898865,2.35503888130188,0.9966719150543213,,,,,,,
4605612000.0,88.86,0.7099999785423279,12041169408.0,1848.9624243418295,240.0,0.006349973380565643,987136.0,2220.1032435894012,1.2961853812498703e-14,0.0,2.362492084503174,-0.023624932393431664,0.046651214361190796,-0.023624921217560768,-1.1175870895385742e-08,0.0,-0.0003258967772126198,0.30549156665802,0.7267515302717313,0.27103376388549805,0.5131505727767944,0.270707905292511,0.5844137072563171,2.215296506881714,0.996729850769043,,,,,,,
4605612000.0,85.82,0.6399999856948853,12041169408.0,1760.3037401616152,241.0,0.004071872681379318,991232.0,2222.4301147460938,1.3463188897056e-14,0.0,2.3650271892547607,-0.0236502718180418,0.05344753339886665,-0.0236502718180418,0.0,0.0,-0.0012248242273926735,0.3269857168197632,0.7063215385284101,0.298367977142334,0.46236205101013184,0.2971431612968445,0.6033825874328613,2.326871156692505,0.9968395233154297,,,,,,,
4605612000.0,85.23,0.6899999976158142,12041169408.0,1791.8513306944176,242.0,0.00554318493232131,995328.0,2224.716018676758,1.3775439122731825e-14,0.0,2.3745598793029785,-0.023745598271489143,0.04351533204317093,-0.023745598271489143,0.0,0.0,0.00446797301992774,0.29501181840896606,0.6486695250342694,0.26526206731796265,0.4266587197780609,0.2697300910949707,0.4977158308029175,2.2859039306640625,0.9966871738433838,,,,,,,
4605612000.0,84.37,0.5699999928474426,12041169408.0,1758.4536855289725,243.0,0.0032639321871101856,999424.0,2227.0453379154205,1.4101567136215465e-14,0.0,2.306361675262451,-0.023063616827130318,0.04195297509431839,-0.023063616827130318,0.0,0.0,0.0033600665628910065,0.2896811068058014,0.7644573401191147,0.2205178290605545,0.535064160823822,0.2238778918981552,0.5968778133392334,2.3293192386627197,0.9966912269592285,,,,,,,
4605612000.0,82.57,0.5600000023841858,12041169408.0,1826.3687541008562,244.0,0.005882455036044121,1003520.0,2229.288039445877,1.3676559884601147e-14,0.0,2.3118443489074707,-0.023118436336517334,0.029502341523766518,-0.02311844378709793,7.450580596923828e-09,0.0,0.04139648377895355,0.23938465118408203,0.7363195600074863,0.2548442482948303,0.38822028040885925,0.29624074697494507,0.46618393063545227,2.242701530456543,0.996675968170166,,,,,,,
4605612000.0,81.52,0.8100000023841858,12041169408.0,1785.0705850130234,245.0,0.009649072773754597,1007616.0,2231.582626581192,1.3862175296530665e-14,0.0,2.3031671047210693,-0.023031679913401604,0.03042519837617874,-0.023031670600175858,-9.313225746154785e-09,0.0,0.02855084091424942,0.2450508177280426,0.8291489431638135,0.3251246511936188,0.504993736743927,0.35367551445961,0.5928534269332886,2.2945871353149414,0.998119592666626,,,,,,,
4605612000.0,79.52,0.9700000286102295,12041169408.0,1743.3116581962859,246.0,0.006216818001121283,1011712.0,2233.9321777820587,1.49741330446318e-14,0.0,2.234772205352783,-0.022347725927829742,0.05959314480423927,-0.022347722202539444,-3.958120942115784e-09,0.0,-0.04059832543134689,0.34288010001182556,0.753783555087721,0.31842994689941406,0.5859989523887634,0.2778316140174866,0.6910091042518616,2.349551200866699,0.9969322681427002,,,,,,,
4605612000.0,75.23,0.6800000071525574,12041169408.0,1808.7836999341864,247.0,0.006386409513652325,1015808.0,2236.1966829299927,1.4519635493925875e-14,0.0,2.2207889556884766,-0.02220788784325123,0.046194251626729965,-0.022207889705896378,1.862645149230957e-09,0.0,-0.010245084762573242,0.3038191497325897,0.6604113614942237,0.23946188390254974,0.4652298390865326,0.2292167842388153,0.5213609933853149,2.26450514793396,0.9970486164093018,,,,,,,
4605612000.0,80.19,0.6299999952316284,12041169408.0,1750.9331774399816,248.0,0.005079719237983227,1019904.0,2238.5360069274902,1.4231671396913725e-14,0.0,2.18161678314209,-0.02181617170572281,0.02917717769742012,-0.02181616798043251,-3.725290298461914e-09,0.0,0.015764329582452774,0.24108096957206726,0.810008732921109,0.23530876636505127,0.4720415771007538,0.25107306241989136,0.5530903339385986,2.3393239974975586,0.9967589378356934,,,,,,,
4605612000.0,86.01,0.6800000071525574,12041169408.0,1733.2516658208845,249.0,0.005412362515926361,1024000.0,2240.8991951942444,1.4762496780562628e-14,0.0,2.281825065612793,-0.02281825616955757,0.0484585240483284,-0.022818250581622124,-6.51925802230835e-09,0.0,0.0014276893343776464,0.3113497495651245,0.709545829510108,0.35252806544303894,0.45738986134529114,0.3539557456970215,0.5777097940444946,2.3631882667541504,0.9968221187591553,,,,,,,
4605612000.0,82.7,0.4099999964237213,12041169408.0,1783.1536967714708,250.0,0.002461931435391307,1028096.0,2243.1962490081787,1.5834555888716295e-14,0.0,2.208737850189209,-0.022087382152676582,0.052721329033374786,-0.022087378427386284,-3.725290298461914e-09,0.0,-0.011822769418358803,0.32454368472099304,0.7846468090900162,0.1663185954093933,0.5756559371948242,0.15449582040309906,0.6993547081947327,2.297053813934326,0.9968774318695068,,,,,,,
4605612000.0,80.39,0.5799999833106995,12041169408.0,1791.9193609286845,251.0,0.0075570810586214066,1032192.0,2245.48206615448,1.5454651447477374e-14,0.0,2.2197728157043457,-0.022197723388671875,0.04001455008983612,-0.022197727113962173,3.725290298461914e-09,0.0,0.012671010568737984,0.28264474868774414,0.8428085984473498,0.32010185718536377,0.6231474876403809,0.3327728807926178,0.7128965854644775,2.2858171463012695,0.9969282150268555,,,,,,,
4605612000.0,83.85,0.949999988079071,12041169408.0,1784.0373325634985,252.0,0.00739502627402544,1036288.0,2247.777982234955,1.3862175296530665e-14,0.0,2.290635585784912,-0.0229063481092453,0.036690760403871536,-0.022906355559825897,7.450580596923828e-09,0.0,0.015139555558562279,0.2704998850822449,0.7942262278440773,0.3342040181159973,0.48034942150115967,0.34934356808662415,0.5963099002838135,2.2959160804748535,0.9965612888336182,,,,,,,
4605612000.0,84.46,1.0299999713897705,12041169408.0,1814.0056859691504,253.0,0.008056554943323135,1040384.0,2250.035968542099,1.435483676370808e-14,0.0,2.247692823410034,-0.022476913407444954,0.04409967362880707,-0.022476928308606148,1.4901161193847656e-08,0.0,0.010892328806221485,0.29682016372680664,0.8246063779276738,0.3655203580856323,0.594758152961731,0.37641268968582153,0.7087392210960388,2.257986307144165,0.99678635597229,,,,,,,
4605612000.0,86.93,1.0700000524520874,12041169408.0,1819.5193746397738,254.0,0.009215534664690495,1044480.0,2252.2871124744415,1.648334246873162e-14,0.0,2.2768163681030273,-0.0227681752294302,0.037499330937862396,-0.022768164053559303,-1.1408701539039612e-08,0.0,0.04238806292414665,0.2705915570259094,0.7897271138701927,0.4828725755214691,0.5475608706474304,0.5252606868743896,0.5900959372520447,2.2511439323425293,0.9968912601470947,,,,,,,
4605612000.0,88.37,1.100000023841858,12041169408.0,1806.4542202845744,255.0,0.008397743105888367,1048576.0,2254.5545377731323,1.586925035823583e-14,0.0,2.2739810943603516,-0.02273980714380741,0.05479782074689865,-0.02273981086909771,3.725290298461914e-09,0.0,-0.009733041748404503,0.330949604511261,0.720994427634373,0.4538448452949524,0.5802704691886902,0.44411176443099976,0.6265496015548706,2.267425298690796,0.9968252182006836,,,,,,,
,,,,,,,,,,,,,,,,,,,,,,,,,,0.004632801283150911,0.05880030617117882,0.0484914667904377,0.004632801283150911,0.05880030617117882,0.0484914667904377,
