CpuMaxMemory,EpLenMean,EpRewMean,GpuMaxMemory,IPS_total,Iter,Misc/FrameRewMean,Misc/InteractCount,Misc/TimeElapsed,Opt/approxkl,Opt/clipfrac,Opt/entropy,Opt/loss_pi,Opt/loss_vf,Opt/negent,Opt/pg,Opt/pi_kl,VFStats/AdvMean,VFStats/AdvStd,VFStats/EV,VFStats/VpredMean,VFStats/VpredStd,VFStats/VtargMean,VFStats/VtargStd,del_time,wait_optimization,scaled/pol_distance,scaled/vf_aux,scaled/vf_true,unscaled/pol_distance,unscaled/vf_aux,unscaled/vf_true,EvalEpMean
3031852000.0,73.28888888888889,-2.555555582046509,11965495808.0,1732.8831283479042,0.0,-0.015968801453709602,4096.0,2.3636908531188965,3.344546861683284e-15,0.0,2.706915855407715,-0.027069177478551865,0.2183704823255539,-0.027069158852100372,-1.862645149230957e-08,0.0,-0.2507922053337097,0.6115026473999023,-0.00032463880272470824,-0.0010594980558380485,0.010867016389966011,-0.2518516778945923,0.6114034056663513,2.3636908531188965,1.0230927467346191,,,,,,,
3082356000.0,76.36734693877551,-2.5204081535339355,12031147008.0,1834.8868240024676,1.0,-0.014877906069159508,8192.0,4.595981121063232,3.740063814205996e-15,0.0,2.703819751739502,-0.027038199827075005,0.18832170963287354,-0.027038196101784706,-3.725290298461914e-09,0.0,-0.17604340612888336,0.5879936814308167,-0.007646858804185586,-0.21837118268013,0.04474451392889023,-0.3944145739078522,0.58575838804245,2.232290267944336,0.996495246887207,,,,,,,
3131724000.0,79.83,-2.0,12031147008.0,1836.4357379957064,2.0,-0.009172841906547546,12288.0,6.826388597488403,4.003741782554471e-15,0.0,2.6969823837280273,-0.026969831436872482,0.15428082644939423,-0.026969823986291885,-7.450580596923828e-09,0.0,-0.007700473070144653,0.5554977059364319,-0.008971473722495071,-0.510300874710083,0.1139986664056778,-0.5180013179779053,0.553022563457489,2.230407476425171,0.9970741271972656,,,,,,,
3180828000.0,81.87,-1.7000000476837158,12031147008.0,1795.691518334589,3.0,-0.010653503239154816,16384.0,9.107403993606567,5.585809592645319e-15,0.0,2.681987762451172,-0.026819873601198196,0.1994565725326538,-0.026819877326488495,3.725290298461914e-09,0.0,0.028084345161914825,0.6310480237007141,0.03417022176917739,-0.7792327404022217,0.17131219804286957,-0.7511484026908875,0.642113983631134,2.281015396118164,0.9969563484191895,,,,,,,
3230196000.0,81.55,-1.8799999952316284,12031147008.0,1833.6373605496428,4.0,-0.010484417900443077,20480.0,11.341215372085571,7.389922007661198e-15,0.0,2.6442549228668213,-0.02644253335893154,0.17202100157737732,-0.026442548260092735,1.4901161193847656e-08,0.0,0.07153813540935516,0.5822431445121765,0.0914018219886884,-0.8406361937522888,0.16944555938243866,-0.7690980434417725,0.6108273267745972,2.233811378479004,0.9967367649078369,,,,,,,
3279300000.0,78.61,-1.940000057220459,12031147008.0,1856.9639579791149,5.0,-0.013777283951640129,24576.0,13.546966314315796,8.933825901280557e-15,0.0,2.594956159591675,-0.02594956010580063,0.1809374988079071,-0.02594956010580063,0.0,0.0,0.008063025772571564,0.6015799045562744,0.06091485275575226,-0.7017942667007446,0.14172899723052979,-0.6937313079833984,0.6207844614982605,2.2057509422302246,0.9966459274291992,,,,,,,
3328404000.0,75.98,-1.690000057220459,12031147008.0,1836.7693209717888,6.0,-0.0069593158550560474,28672.0,15.776968717575073,9.091685737594446e-15,0.0,2.511137008666992,-0.025111375376582146,0.13119541108608246,-0.025111369788646698,-5.587935447692871e-09,0.0,0.05013779550790787,0.5098435878753662,0.05271889191612256,-0.5949751734733582,0.13549546897411346,-0.544837474822998,0.5238386988639832,2.2300024032592773,0.9969301223754883,,,,,,,
3377772000.0,76.34,-1.149999976158142,12031147008.0,1799.8660654774887,7.0,-0.008467337116599083,32768.0,18.052693605422974,9.598224992579674e-15,0.0,2.487100601196289,-0.024871014058589935,0.1172562688589096,-0.02487100474536419,-8.381903171539307e-09,0.0,0.023519091308116913,0.4837525486946106,0.13601623832675158,-0.4901987314224243,0.13690224289894104,-0.4666796326637268,0.5204397439956665,2.2757248878479004,0.99686598777771,,,,,,,
3426876000.0,74.58,-1.4800000190734863,12031147008.0,1881.3555570059455,8.0,-0.01337029691785574,36864.0,20.229847192764282,7.8236028766554e-15,0.0,2.526686668395996,-0.02526686154305935,0.162724107503891,-0.025266865268349648,3.725290298461914e-09,0.0,-0.07063212990760803,0.5661604404449463,0.11145679795655516,-0.436185359954834,0.1890588402748108,-0.5068174600601196,0.600620448589325,2.1771535873413086,0.9966909885406494,,,,,,,
3476244000.0,74.44,-1.7000000476837158,12031147008.0,1825.2353763057358,9.0,-0.00898534245789051,40960.0,22.473941326141357,8.239936510889834e-15,0.0,2.5327036380767822,-0.025327054783701897,0.13773930072784424,-0.025327036157250404,-1.862645149230957e-08,0.0,-0.0529157891869545,0.5222499966621399,0.16705731738136165,-0.3694474697113037,0.16378502547740936,-0.4223632514476776,0.572230339050293,2.244094133377075,0.996544361114502,,,,,,,
3525348000.0,78.72,-1.4199999570846558,12031147008.0,1887.5052773643106,10.0,-0.01193473394960165,45056.0,24.644001483917236,8.623310399080708e-15,0.0,2.5357940196990967,-0.025357935577630997,0.17704392969608307,-0.025357939302921295,3.725290298461914e-09,0.0,-0.04614317789673805,0.5933334827423096,0.17652601067893503,-0.4674060642719269,0.2646067142486572,-0.513549268245697,0.6538436412811279,2.170060157775879,0.9969377517700195,,,,,,,
3574716000.0,76.13,-1.5299999713897705,12031147008.0,1838.4845019284971,11.0,-0.0072353677824139595,49152.0,26.871923446655273,7.301451110386381e-15,0.0,2.5327582359313965,-0.02532757818698883,0.15965956449508667,-0.02532758191227913,3.725290298461914e-09,0.0,0.02792520262300968,0.5644617676734924,0.38245927944875335,-0.6612589359283447,0.39086347818374634,-0.633333683013916,0.7182931900024414,2.227921962738037,0.9973187446594238,,,,,,,
3624348000.0,73.09,-1.4199999570846558,12031147008.0,1852.792386884977,12.0,-0.012739857658743858,53248.0,29.082640647888184,6.5780714209040525e-15,0.0,2.5673274993896484,-0.02567327953875065,0.20794638991355896,-0.0256732739508152,-5.587935447692871e-09,0.0,0.039561763405799866,0.6437614560127258,0.42523444438772184,-0.8189189434051514,0.5240443348884583,-0.7793571949005127,0.8491405844688416,2.21071720123291,0.9967260360717773,,,,,,,
3673716000.0,75.23,-1.9199999570846558,12031147008.0,1851.2281380199142,13.0,-0.014109732583165169,57344.0,31.295225858688354,7.532169332691296e-15,0.0,2.58734130859375,-0.025873415172100067,0.24390456080436707,-0.025873413309454918,-1.862645149230957e-09,0.0,0.009060274809598923,0.698459804058075,0.34394990283640126,-0.8934659957885742,0.619709849357605,-0.8844057321548462,0.8623288869857788,2.212585210800171,0.9969065189361572,,,,,,,
3723348000.0,78.93,-2.140000104904175,12031147008.0,1863.8137569379585,14.0,-0.013570962473750114,61440.0,33.49287033081055,6.843484112728504e-15,0.0,2.5888562202453613,-0.025888558477163315,0.2178037166595459,-0.025888562202453613,2.7939677238464355e-09,0.0,-0.024638261646032333,0.6596260666847229,0.33164665213497724,-0.6896058320999146,0.4743315875530243,-0.7142441272735596,0.8068538308143616,2.1976444721221924,0.9967074394226074,,,,,,,
3772716000.0,78.03,-2.180000066757202,12031147008.0,1774.4808890154975,15.0,-0.01387927308678627,65536.0,35.80115103721619,6.418476861114186e-15,0.0,2.566114902496338,-0.02566114254295826,0.20470306277275085,-0.025661148130893707,5.587935447692871e-09,0.0,-0.060787953436374664,0.6370322108268738,0.24128442082761759,-0.6531038284301758,0.4057729244232178,-0.7138918042182922,0.7313442826271057,2.3082807064056396,0.9973273277282715,,,,,,,
3822348000.0,72.19,-1.8700000047683716,12031147008.0,1883.2221479134278,16.0,-0.012157158926129341,69632.0,37.97614669799805,6.198166979665132e-15,0.0,2.5518240928649902,-0.02551824040710926,0.1871989220380783,-0.02551824040710926,4.656612873077393e-10,0.0,0.035735227167606354,0.6109107136726379,0.24384587240284228,-0.6837558150291443,0.4086170792579651,-0.6480206251144409,0.7025425434112549,2.1749956607818604,0.9964807033538818,,,,,,,
3871716000.0,73.97,-1.2799999713897705,12031147008.0,1843.7632873240416,17.0,-0.004896057769656181,73728.0,40.1976900100708,6.411537967210279e-15,0.0,2.527982711791992,-0.02527984231710434,0.12821367383003235,-0.025279827415943146,-1.4901161193847656e-08,0.0,0.12544921040534973,0.4906613826751709,0.2836874172475319,-0.7277731895446777,0.37796303629875183,-0.6023239493370056,0.5797364711761475,2.221543312072754,0.9965929985046387,,,,,,,
3921348000.0,73.71,-1.4199999570846558,12031147008.0,1817.8353420143567,18.0,-0.012033244594931602,77824.0,42.45091938972473,6.4965394175331426e-15,0.0,2.5197012424468994,-0.025197017937898636,0.17558667063713074,-0.025197012349963188,-5.587935447692871e-09,0.0,-0.022053644061088562,0.5922605991363525,0.18344218122526246,-0.5632283687591553,0.26666054129600525,-0.5852820873260498,0.6554195284843445,2.2532293796539307,0.9969983100891113,,,,,,,
3970980000.0,73.87,-1.5099999904632568,12031147008.0,1828.3575502802155,19.0,-0.009975962340831757,81920.0,44.69118142127991,6.09061412415457e-15,0.0,2.516997814178467,-0.025169972330331802,0.18934212625026703,-0.02516997791826725,5.587935447692871e-09,0.0,-0.03372269868850708,0.6145235300064087,0.08252405155416176,-0.42816609144210815,0.1802431046962738,-0.46188879013061523,0.6415657997131348,2.240262031555176,0.9970593452453613,,,,,,,
4020348000.0,72.19,-1.350000023841858,12031147008.0,1813.765910717485,20.0,-0.010297106578946114,86016.0,46.94946622848511,6.411537967210279e-15,0.0,2.470992088317871,-0.0247099157422781,0.20089107751846313,-0.024709919467568398,3.725290298461914e-09,0.0,-0.050948452204465866,0.6318891644477844,0.06490829408152488,-0.41147249937057495,0.12621153891086578,-0.4624209403991699,0.6534520983695984,2.2582848072052,0.9967436790466309,,,,,,,
4069980000.0,71.56,-1.4199999570846558,12031147008.0,1820.6892690322031,21.0,-0.011074896901845932,90112.0,49.19916367530823,6.392456008974534e-15,0.0,2.403620719909668,-0.024036219343543053,0.18661677837371826,-0.024036206305027008,-1.30385160446167e-08,0.0,-0.06954869627952576,0.6070308685302734,-0.0006192196771821479,-0.42998993396759033,0.09687869250774384,-0.4995386004447937,0.6068429350852966,2.24969744682312,0.9966270923614502,,,,,,,
4119348000.0,72.64,-1.25,12031147008.0,1864.6967862715592,22.0,-0.0046862224116921425,94208.0,51.39576745033264,6.687358999890591e-15,0.0,2.4043092727661133,-0.024043090641498566,0.09695598483085632,-0.024043092504143715,1.862645149230957e-09,0.0,0.06632032990455627,0.43538475036621094,0.06460494997973487,-0.4837082624435425,0.1070183515548706,-0.4173879325389862,0.45016905665397644,2.196603775024414,0.9971027374267578,,,,,,,
4168980000.0,72.93,-1.0,12031147008.0,1881.2224736621374,23.0,-0.01148730143904686,98304.0,53.57307505607605,6.841749389252527e-15,0.0,2.3770742416381836,-0.02377074770629406,0.1893147975206375,-0.023770742118358612,-5.122274160385132e-09,0.0,-0.026447733864188194,0.614835262298584,0.029605713102959674,-0.48886585235595703,0.09514298290014267,-0.5153135657310486,0.6241437792778015,2.177307605743408,0.9966354370117188,,,,,,,
4218348000.0,72.92,-1.5199999809265137,12031147008.0,1864.882602032542,24.0,-0.013589376583695412,102400.0,55.76945996284485,6.222453108328807e-15,0.0,2.4438467025756836,-0.02443845570087433,0.18233953416347504,-0.024438466876745224,1.1175870895385742e-08,0.0,-0.05921555683016777,0.6010497212409973,0.07756973459422334,-0.4590302109718323,0.08534087985754013,-0.5182457566261292,0.6258115768432617,2.196384906768799,0.9967527389526367,,,,,,,
4268244000.0,75.56,-1.8700000047683716,12031147008.0,1800.1174574058894,25.0,-0.012885152362287045,106496.0,58.04486703872681,6.088879400678593e-15,0.0,2.4981753826141357,-0.02498176321387291,0.2322191298007965,-0.024981753900647163,-9.313225746154785e-09,0.0,-0.05974491313099861,0.6789560914039612,0.07149766026606807,-0.5224790573120117,0.09119050949811935,-0.5822238922119141,0.7046121954917908,2.275407075881958,0.9967770576477051,,,,,,,
4317876000.0,74.1,-1.5800000429153442,12031147008.0,1853.1541272904371,26.0,-0.009499585255980492,110592.0,60.25515270233154,5.554584570077736e-15,0.0,2.543027400970459,-0.02543027326464653,0.17206300795078278,-0.02543027326464653,0.0,0.0,0.06225845217704773,0.5833806395530701,0.1131922577094957,-0.6134942770004272,0.11126561462879181,-0.5512358546257019,0.6194942593574524,2.2102856636047363,0.9968771934509277,,,,,,,
4367244000.0,72.48,-1.399999976158142,12031147008.0,1882.4202832220399,27.0,-0.010766510851681232,114688.0,62.43107485771179,5.663872149064275e-15,0.0,2.5541677474975586,-0.02554168365895748,0.20252293348312378,-0.025541676208376884,-7.450580596923828e-09,0.0,0.031235987320542336,0.6357427835464478,0.10272133851992127,-0.7000091075897217,0.11603877693414688,-0.6687730550765991,0.6711471080780029,2.175922155380249,0.9969203472137451,,,,,,,
4416876000.0,75.43,-1.659999966621399,12031147008.0,1861.7033419238196,28.0,-0.013696214184165001,118784.0,64.63121056556702,5.367234434672241e-15,0.0,2.556781768798828,-0.02556781843304634,0.22404445707798004,-0.02556781657040119,-1.862645149230957e-09,0.0,-0.020831335335969925,0.6691519021987915,0.061515869289970104,-0.7167820930480957,0.10606199502944946,-0.7376134991645813,0.6907346248626709,2.2001357078552246,0.9968760013580322,,,,,,,
4466244000.0,71.39,-2.190000057220459,12031147008.0,1810.0546227650975,29.0,-0.0156441330909729,122880.0,66.89412569999695,5.278763537397424e-15,0.0,2.542999744415283,-0.025430001318454742,0.2310364991426468,-0.025429997593164444,-3.725290298461914e-09,0.0,0.014450243674218655,0.6796889305114746,0.08014766145010377,-0.801093578338623,0.12250393629074097,-0.786643385887146,0.7086814641952515,2.2629151344299316,0.9966475963592529,,,,,,,
4515876000.0,73.43,-1.940000057220459,12031147008.0,1815.5016898137849,30.0,-0.011141746304929256,126976.0,69.1502513885498,5.752343046339092e-15,0.0,2.5451295375823975,-0.0254512932151556,0.19889208674430847,-0.02545129507780075,1.862645149230957e-09,0.0,0.04308195412158966,0.6293050050735474,0.059320651095776555,-0.8304837346076965,0.14495176076889038,-0.7874017357826233,0.6488440036773682,2.2561256885528564,0.9970335960388184,,,,,,,
4565244000.0,80.58,-1.2999999523162842,12031147008.0,1824.1876578855465,31.0,-0.008114736527204514,131072.0,71.3956344127655,6.238065619612598e-15,0.0,2.4858596324920654,-0.024858612567186356,0.12849657237529755,-0.024858595803380013,-1.5832483768463135e-08,0.0,0.10848121345043182,0.49526238441467285,0.10441205375011231,-0.7777698040008545,0.1333935409784317,-0.6692885756492615,0.5233367681503296,2.2453830242156982,0.9972901344299316,,,,,,,
,,,,,,,,,,,,,,,,,,,,,,,,,,0.005254227668046951,0.20707574486732483,0.1880994290113449,0.005254227668046951,0.20707574486732483,0.1880994290113449,
,,,,,,,,,,,,,,,,,,,,,,,,,,0.001982563640922308,0.1767740100622177,0.15846192836761475,0.001982563640922308,0.1767740100622177,0.15846192836761475,
,,,,,,,,,,,,,,,,,,,,,,,,,,0.0031937831081449986,0.15721404552459717,0.14824716746807098,0.0031937831081449986,0.15721404552459717,0.14824716746807098,
,,,,,,,,,,,,,,,,,,,,,,,,,,0.001668627723120153,0.14277441799640656,0.1356123983860016,0.001668627723120153,0.14277441799640656,0.1356123983860016,
,,,,,,,,,,,,,,,,,,,,,,,,,,0.001741125131957233,0.1319773942232132,0.12864111363887787,0.001741125131957233,0.1319773942232132,0.12864111363887787,
,,,,,,,,,,,,,,,,,,,,,,,,,,0.0015886761248111725,0.12304544448852539,0.12149156630039215,0.0015886761248111725,0.12304544448852539,0.12149156630039215,
,,,,,,,,,,,,,,,,,,,,,,,,,,,,,,,,-1.81
4584140000.0,78.68,-1.3200000524520874,11990518784.0,17.072276131712236,32.0,-0.00916046928614378,135168.0,311.3167772293091,4.881511861398735e-15,0.0,2.38588809967041,-0.023858893662691116,0.10747598111629486,-0.02385888062417507,-1.30385160446167e-08,0.0,0.07048633694648743,0.45829567313194275,0.6551335120448892,-0.6512274742126465,0.4819035828113556,-0.5807411670684814,0.7804055213928223,239.92114281654358,0.9967701435089111,,,,,,,
4584140000.0,71.6,-1.1100000143051147,12041169408.0,1858.2359780804363,33.0,-0.00723262969404459,139264.0,313.52101826667786,5.218048215738236e-15,0.0,2.3338828086853027,-0.023338820785284042,0.11011868715286255,-0.02333882823586464,7.450580596923828e-09,0.0,0.06074650213122368,0.4654031991958618,0.6654781201070659,-0.6317457556724548,0.5169556140899658,-0.570999264717102,0.8046685457229614,2.2042410373687744,0.9981310367584229,,,,,,,
4584140000.0,71.06,-1.3200000524520874,12041169408.0,1825.176621073025,34.0,-0.011536561883985996,143360.0,315.7651846408844,5.790506962810582e-15,0.0,2.2859792709350586,-0.022859808057546616,0.08168342709541321,-0.022859791293740273,-1.6763806343078613e-08,0.0,0.04321438819169998,0.401918888092041,0.7375957184396325,-0.6185089349746704,0.578199028968811,-0.575294554233551,0.7846084237098694,2.244166374206543,0.9966683387756348,,,,,,,
4584140000.0,74.65,-1.6100000143051147,12041169408.0,1845.145488788991,35.0,-0.008711627684533596,147456.0,317.985063791275,5.443562267615221e-15,0.0,2.198979377746582,-0.021989796310663223,0.07522400468587875,-0.021989792585372925,-3.725290298461914e-09,0.0,0.059744782745838165,0.38329416513442993,0.7669261999044809,-0.621650755405426,0.5905727744102478,-0.5619059801101685,0.793936014175415,2.219879150390625,0.9970555305480957,,,,,,,
4584140000.0,75.15,-1.690000057220459,12041169408.0,1877.4848924700043,36.0,-0.015503795817494392,151552.0,320.1667058467865,5.955305693028379e-15,0.0,2.2461328506469727,-0.022461332380771637,0.11046549677848816,-0.02246132865548134,-3.725290298461914e-09,0.0,0.013624360784888268,0.46989282965660095,0.7034595263145698,-0.7131397724151611,0.6926535964012146,-0.6995153427124023,0.862892746925354,2.1816420555114746,0.9967751502990723,,,,,,,
4584140000.0,72.53,-1.7599999904632568,12041169408.0,1855.0494749133422,37.0,-0.007820967584848404,155648.0,322.37473320961,5.766220834146907e-15,0.0,2.2577390670776367,-0.02257739007472992,0.11630114167928696,-0.02257739007472992,0.0,0.0,0.0866623967885971,0.474496454000473,0.6225646828446252,-0.502170205116272,0.6121129393577576,-0.41550785303115845,0.7723455429077148,2.2080273628234863,0.9968390464782715,,,,,,,
4584140000.0,74.29,-1.0,12041169408.0,1860.3071093725976,38.0,-0.006539561785757542,159744.0,324.57652020454407,5.542441505745899e-15,0.0,2.302389144897461,-0.02302389033138752,0.09235930442810059,-0.02302389033138752,0.0,0.0,0.07320959866046906,0.42355963587760925,0.6650677306831421,-0.42789536714553833,0.5909258723258972,-0.35468578338623047,0.7318735122680664,2.201786994934082,0.997002124786377,,,,,,,
4584140000.0,73.67,-1.0399999618530273,12041169408.0,1790.4216489679673,39.0,-0.00983412191271782,163840.0,326.86424946784973,5.306519113013053e-15,0.0,2.277279853820801,-0.022772790864109993,0.08166877925395966,-0.02277279831469059,7.450580596923828e-09,0.0,-0.005888413637876511,0.404156893491745,0.7535089345440862,-0.3802378177642822,0.6480145454406738,-0.38612625002861023,0.8140468001365662,2.287729263305664,0.9967794418334961,,,,,,,
4584140000.0,73.12,-1.1399999856948853,12041169408.0,1858.3604013483275,40.0,-0.008001706562936306,167936.0,329.06834292411804,5.585809592645319e-15,0.0,2.309458017349243,-0.02309458702802658,0.09840872138738632,-0.023094579577445984,-7.450580596923828e-09,0.0,0.0292670838534832,0.442728728055954,0.6997395148795116,-0.2532091736793518,0.6157298684120178,-0.2239421010017395,0.8079577088356018,2.2040934562683105,0.9967606067657471,,,,,,,
4584140000.0,75.92,-1.0800000429153442,12041169408.0,1830.8806681934068,41.0,-0.009849644266068935,172032.0,331.30551767349243,5.6881582777279505e-15,0.0,2.352142572402954,-0.02352142333984375,0.14015597105026245,-0.0235214252024889,1.862645149230957e-09,0.0,-0.019978128373622894,0.5291324853897095,0.5675334773956978,-0.365592896938324,0.6856608986854553,-0.38557103276252747,0.8046150803565979,2.2371747493743896,0.9967584609985352,,,,,,,
4584140000.0,77.85,-1.8700000047683716,12041169408.0,1870.3939086097673,42.0,-0.01513739489018917,176128.0,333.4954307079315,5.958775139980332e-15,0.0,2.3960609436035156,-0.023960601538419724,0.16719910502433777,-0.02396060898900032,6.51925802230835e-09,0.0,-0.09949028491973877,0.5697184801101685,0.6712255185612603,-0.29137054085731506,0.703299880027771,-0.3908608555793762,0.9935992360115051,2.189913034439087,0.9968864917755127,,,,,,,
4584140000.0,76.95,-1.75,12041169408.0,1873.2634082466307,43.0,-0.008355984464287758,180224.0,335.68198919296265,5.30825383648903e-15,0.0,2.4552454948425293,-0.02455245517194271,0.12835121154785156,-0.02455245517194271,0.0,0.0,-0.00985034741461277,0.5066241025924683,0.6329002644120382,-0.28620290756225586,0.7560561895370483,-0.2960532605648041,0.836168646812439,2.186558485031128,0.9970073699951172,,,,,,,
4584140000.0,76.74,-1.2599999904632568,12041169408.0,1901.3765920829971,44.0,-0.009144417941570282,184320.0,337.836217880249,5.2648857495896095e-15,0.0,2.5025038719177246,-0.025025030598044395,0.10429629683494568,-0.025025038048624992,7.450580596923828e-09,0.0,-0.0015764376148581505,0.45677241683006287,0.7555331908831909,-0.3547593057155609,0.7896944880485535,-0.35633572936058044,0.9238254427909851,2.154228687286377,0.9970803260803223,,,,,,,
4584140000.0,76.47,-1.2999999523162842,12041169408.0,1832.382366289198,45.0,-0.01133804488927126,188416.0,340.0715591907501,5.209374598358352e-15,0.0,2.529839038848877,-0.025298405438661575,0.15134942531585693,-0.02529839053750038,-1.4901161193847656e-08,0.0,0.02626945823431015,0.5496203303337097,0.6507749144266037,-0.3810296952724457,0.7529109120368958,-0.3547602593898773,0.9300581216812134,2.2353413105010986,0.99690842628479,,,,,,,
4584140000.0,77.7,-1.8300000429153442,12041169408.0,1806.3854618299329,46.0,-0.010674763470888138,192512.0,342.33907079696655,5.419276138951545e-15,0.0,2.5565385818481445,-0.025565393269062042,0.12014701217412949,-0.025565385818481445,-7.450580596923828e-09,0.0,0.03261446952819824,0.48917147517204285,0.7690810347982768,-0.4511668384075165,0.8890426754951477,-0.41855236887931824,1.0179613828659058,2.2675116062164307,0.9970219135284424,,,,,,,
4584140000.0,80.74,-2.0,12041169408.0,1871.829802088991,47.0,-0.014246822334825993,196608.0,344.5273039340973,5.381112222480056e-15,0.0,2.5629565715789795,-0.02562955766916275,0.14707334339618683,-0.025629565119743347,7.450580596923828e-09,0.0,-0.030003361403942108,0.541588544845581,0.6313640385296095,-0.3108503520488739,0.6870943307876587,-0.340853750705719,0.8920117616653442,2.1882331371307373,0.9967358112335205,,,,,,,
4584140000.0,77.65,-1.399999976158142,12041169408.0,1868.2677615654593,48.0,-0.006361112464219332,200704.0,346.7197091579437,5.277028813921447e-15,0.0,2.5435495376586914,-0.02543550170958042,0.10470835864543915,-0.025435494258999825,-7.450580596923828e-09,0.0,0.08015575259923935,0.45060110092163086,0.6076771590917704,-0.28258347511291504,0.6993094682693481,-0.2024277001619339,0.7194000482559204,2.1924052238464355,0.9969358444213867,,,,,,,
4584140000.0,77.25,-1.1699999570846558,12041169408.0,1845.4749087621624,49.0,-0.010383298620581627,204800.0,348.9391920566559,5.249273238305818e-15,0.0,2.484281063079834,-0.02484281361103058,0.13258561491966248,-0.02484280988574028,-3.725290298461914e-09,0.0,-0.0387236513197422,0.5135524272918701,0.6431524612925537,-0.3539661765098572,0.722708523273468,-0.3926897943019867,0.8596930503845215,2.219482898712158,0.9971442222595215,,,,,,,
4584140000.0,83.7,-1.6299999952316284,12041169408.0,1830.619050602617,50.0,-0.009994249790906906,208896.0,351.17668652534485,4.558853294867049e-15,0.0,2.483184337615967,-0.02483184263110161,0.12618713080883026,-0.02483184263110161,0.0,0.0,0.011462286114692688,0.5022991895675659,0.5869618887854222,-0.2403184324502945,0.6750221252441406,-0.2288561463356018,0.7815691232681274,2.237494468688965,0.996753454208374,,,,,,,
4584140000.0,83.62,-1.399999976158142,12041169408.0,1873.3167209511025,51.0,-0.005206662230193615,212992.0,353.36318278312683,4.924879948298155e-15,0.0,2.4579215049743652,-0.024579206481575966,0.08949416875839233,-0.024579213932156563,6.984919309616089e-09,0.0,-0.004529846366494894,0.42309752106666565,0.5823425515278644,-0.07629162073135376,0.5015186667442322,-0.08082146942615509,0.6546819806098938,2.1864962577819824,0.9968554973602295,,,,,,,
4584140000.0,77.03,-1.0800000429153442,12041169408.0,1870.1638326066527,52.0,-0.010160074569284916,217088.0,355.5533652305603,5.205905151406398e-15,0.0,2.38919734954834,-0.023891979828476906,0.08630602061748505,-0.02389197237789631,-7.450580596923828e-09,0.0,-0.02534754015505314,0.41474273800849915,0.7798949143401904,-0.2879576086997986,0.696295440196991,-0.313305139541626,0.8840233683586121,2.1901824474334717,0.9968154430389404,,,,,,,
4584140000.0,76.05,-1.2999999523162842,12041169408.0,1836.1450561364477,53.0,-0.010187181644141674,221184.0,357.7841258049011,5.7870375158586285e-15,0.0,2.4041738510131836,-0.024041730910539627,0.09567660093307495,-0.024041738361120224,7.450580596923828e-09,0.0,-0.009907773695886135,0.4373805522918701,0.7163786525359593,-0.31636664271354675,0.676181972026825,-0.32627439498901367,0.8212776184082031,2.2307605743408203,0.9967124462127686,,,,,,,
4584140000.0,73.29,-1.3200000524520874,12041169408.0,1880.981488285929,54.0,-0.008235217072069645,225280.0,359.9617123603821,5.353356646864427e-15,0.0,2.3689799308776855,-0.02368980273604393,0.0722956731915474,-0.02368979901075363,-2.7939677238464355e-09,0.0,0.01990589313209057,0.3797766864299774,0.7267848754514378,-0.2504699230194092,0.5592160820960999,-0.23056402802467346,0.7265674471855164,2.177586555480957,0.996934175491333,,,,,,,
4584140000.0,72.92,-0.75,12041169408.0,1887.31907294357,55.0,-0.004857078660279512,229376.0,362.131986618042,5.670811042968182e-15,0.0,2.3645248413085938,-0.023645242676138878,0.04904182255268097,-0.023645248264074326,5.587935447692871e-09,0.0,0.0680186003446579,0.30574488639831543,0.772810272534224,-0.22930274903774261,0.5827479362487793,-0.16128414869308472,0.6414530873298645,2.170274257659912,0.9966480731964111,,,,,,,
4584140000.0,70.39,-0.8399999737739563,12041169408.0,1884.2453823846283,56.0,-0.008806719444692135,233472.0,364.305801153183,5.304784389537076e-15,0.0,2.3851351737976074,-0.02385134808719158,0.08126716315746307,-0.02385135181248188,3.725290298461914e-09,0.0,0.025532566010951996,0.4023952782154083,0.6506884715828458,-0.26892805099487305,0.5505713224411011,-0.24339547753334045,0.6808420419692993,2.173814535140991,0.9967696666717529,,,,,,,
4584140000.0,72.92,-1.0299999713897705,12041169408.0,1892.3378441371447,57.0,-0.006848429329693317,237568.0,366.4703195095062,5.450501161519128e-15,0.0,2.443852424621582,-0.02443852461874485,0.08979909121990204,-0.02443852461874485,0.0,0.0,0.0022051874548196793,0.42383623123168945,0.7010375648269975,-0.3071254789829254,0.6125984191894531,-0.3049202859401703,0.7751572132110596,2.164518356323242,0.9965863227844238,,,,,,,
4584140000.0,75.63,-0.949999988079071,12041169408.0,1818.9832339925874,58.0,-0.006853873375803232,241664.0,368.7221269607544,5.367234434672241e-15,0.0,2.475743055343628,-0.02475743554532528,0.09050250053405762,-0.02475742995738983,-6.05359673500061e-09,0.0,-0.003939743619412184,0.42548054456710815,0.665397358073242,-0.2526358962059021,0.5344441533088684,-0.25657564401626587,0.7355546951293945,2.251807451248169,0.9968676567077637,,,,,,,
4584140000.0,74.93,-1.5099999904632568,12041169408.0,1861.662792218537,59.0,-0.014212284237146378,245760.0,370.922310590744,6.113165529342268e-15,0.0,2.4860286712646484,-0.024860283359885216,0.12471774220466614,-0.024860287085175514,3.725290298461914e-09,0.0,-0.03260212019085884,0.4984307587146759,0.7349259324437514,-0.4358403980731964,0.7676522731781006,-0.46844252943992615,0.9681022763252258,2.200183629989624,0.996741533279419,,,,,,,
4584140000.0,73.37,-1.399999976158142,12041169408.0,1868.4077558000745,60.0,-0.007251228671520948,249856.0,373.11455154418945,6.13918638148192e-15,0.0,2.484999656677246,-0.024849990382790565,0.08303973078727722,-0.024849995970726013,5.587935447692871e-09,0.0,0.028244681656360626,0.40659815073013306,0.7453179229316614,-0.2785300314426422,0.6302429437637329,-0.2502853274345398,0.8056867122650146,2.1922409534454346,0.9971153736114502,,,,,,,
4584140000.0,74.66,-0.8799999952316284,12041169408.0,1866.9582371954814,61.0,-0.005414056591689587,253952.0,375.3084945678711,6.300515664747763e-15,0.0,2.4718680381774902,-0.024718686938285828,0.08155005425214767,-0.02471867948770523,-7.450580596923828e-09,0.0,0.07384124398231506,0.39709708094596863,0.7309335911312902,-0.39238303899765015,0.7199513912200928,-0.3185417950153351,0.7655382752418518,2.1939430236816406,0.9970858097076416,,,,,,,
4584140000.0,73.2,-0.9399999976158142,12041169408.0,1829.7746201085242,62.0,-0.006749222986400127,258048.0,377.54702162742615,5.972652927788147e-15,0.0,2.459238052368164,-0.02459237538278103,0.07394875586032867,-0.024592379108071327,3.725290298461914e-09,0.0,0.029154403135180473,0.3835146129131317,0.7823919369515296,-0.3017028868198395,0.7296417951583862,-0.27254846692085266,0.8221374154090881,2.2385270595550537,0.9967188835144043,,,,,,,
4630584000.0,70.66,-0.8700000047683716,12041169408.0,1836.371352174989,63.0,-0.007031680550426245,262144.0,379.77750730514526,6.392456008974534e-15,0.0,2.4366347789764404,-0.024366343393921852,0.06965199112892151,-0.02436634711921215,3.725290298461914e-09,0.0,0.022466739639639854,0.372603178024292,0.7588820304171832,-0.2615773677825928,0.6449874639511108,-0.23911061882972717,0.7588077783584595,2.230485677719116,0.9966201782226562,,,,,,,
,,,,,,,,,,,,,,,,,,,,,,,,,,0.010860712267458439,0.17680609226226807,0.09942153096199036,0.010860712267458439,0.17680609226226807,0.09942153096199036,
,,,,,,,,,,,,,,,,,,,,,,,,,,0.0029298935551196337,0.10192473977804184,0.0899825245141983,0.0029298935551196337,0.10192473977804184,0.0899825245141983,
,,,,,,,,,,,,,,,,,,,,,,,,,,0.002977070165798068,0.09054402261972427,0.08514191955327988,0.002977070165798068,0.09054402261972427,0.08514191955327988,
,,,,,,,,,,,,,,,,,,,,,,,,,,0.0022558243945240974,0.08543194085359573,0.08158376067876816,0.0022558243945240974,0.08543194085359573,0.08158376067876816,
,,,,,,,,,,,,,,,,,,,,,,,,,,0.0018008366459980607,0.08165448158979416,0.07860300689935684,0.0018008366459980607,0.08165448158979416,0.07860300689935684,
,,,,,,,,,,,,,,,,,,,,,,,,,,0.002334713703021407,0.07935808598995209,0.07902517914772034,0.002334713703021407,0.07935808598995209,0.07902517914772034,
,,,,,,,,,,,,,,,,,,,,,,,,,,,,,,,,-2.02
4633560000.0,67.62,-0.6200000047683716,11990521856.0,17.064951276491318,64.0,-0.0023950953036546707,266240.0,619.8016324043274,5.362030264244311e-15,0.0,2.4097657203674316,-0.024097664281725883,0.07403597980737686,-0.024097656831145287,-7.450580596923828e-09,0.0,0.08417421579360962,0.3755277395248413,0.6771564695835095,-0.25338053703308105,0.6189130544662476,-0.16920630633831024,0.6609156131744385,240.02412509918213,0.9970424175262451,,,,,,,
4633560000.0,73.87,-0.6299999952316284,12041169408.0,1808.1023793671845,65.0,-0.009991498664021492,270336.0,622.066990852356,6.036837696399289e-15,0.0,2.392289638519287,-0.02392289601266384,0.05721593648195267,-0.02392289601266384,0.0,0.0,0.004405486397445202,0.33829042315483093,0.8731105038847976,-0.48207899928092957,0.8245288133621216,-0.4776735305786133,0.9496789574623108,2.2653584480285645,0.9974825382232666,,,,,,,
4633560000.0,76.33,-1.2899999618530273,12041169408.0,1871.7616869691165,66.0,-0.009726446121931076,274432.0,624.2553036212921,6.033368249447335e-15,0.0,2.4176716804504395,-0.024176713079214096,0.06675252318382263,-0.024176716804504395,3.725290298461914e-09,0.0,-0.0012707794085144997,0.36542582511901855,0.8348525128745423,-0.3447428345680237,0.7504035234451294,-0.346013605594635,0.8992143869400024,2.1883127689361572,0.9976050853729248,,,,,,,
4633560000.0,72.07,-0.9599999785423279,12041169408.0,1834.698512206231,67.0,-0.004539595451205969,278528.0,626.487823009491,6.3716393272628125e-15,0.0,2.40436053276062,-0.024043604731559753,0.05452077090740204,-0.024043604731559753,9.313225746154785e-10,0.0,0.03204543888568878,0.3286959230899811,0.7746511180400844,-0.19509166479110718,0.5780408978462219,-0.1630462110042572,0.6924152374267578,2.2325193881988525,0.9975993633270264,,,,,,,
4633560000.0,69.79,-0.7799999713897705,12041169408.0,1892.302618722241,68.0,-0.00709186214953661,282624.0,628.6523816585541,5.9657140338842396e-15,0.0,2.4041926860809326,-0.024041928350925446,0.060899678617715836,-0.024041926488280296,-1.862645149230957e-09,0.0,0.03627463057637215,0.34714972972869873,0.7834054472299521,-0.28286099433898926,0.6575338840484619,-0.24658633768558502,0.7459213137626648,2.1645586490631104,0.9968714714050293,,,,,,,
4633560000.0,71.16,-0.699999988079071,12041169408.0,1859.7361973344516,69.0,-0.00429482851177454,286720.0,630.8548445701599,6.085409953726639e-15,0.0,2.424469232559204,-0.024244707077741623,0.06400088965892792,-0.02424469217658043,-1.4901161193847656e-08,0.0,0.02567184716463089,0.35689473152160645,0.7904550343534962,-0.26469361782073975,0.6973924040794373,-0.23902176320552826,0.7796533107757568,2.202462911605835,0.9968767166137695,,,,,,,
4633560000.0,73.54,-0.7400000095367432,12041169408.0,1897.6939842421714,70.0,-0.00859554298222065,290816.0,633.0132536888123,6.187758638809271e-15,0.0,2.3618617057800293,-0.02361861802637577,0.05956989526748657,-0.02361861616373062,-1.862645149230957e-09,0.0,0.015575405210256577,0.34485679864883423,0.8148609900523738,-0.2127678394317627,0.6673009395599365,-0.19719240069389343,0.8014746904373169,2.1584091186523438,0.9968338012695312,,,,,,,
4633560000.0,73.8,-0.9599999785423279,12041169408.0,1862.3893232027833,71.0,-0.005925286561250687,294912.0,635.2125790119171,6.746339598073803e-15,0.0,2.347092390060425,-0.023470919579267502,0.041055090725421906,-0.0234709233045578,3.725290298461914e-09,0.0,0.00287620909512043,0.2865692973136902,0.8549661895100457,-0.24860519170761108,0.6668156385421753,-0.245728999376297,0.7524802088737488,2.1993253231048584,0.9970712661743164,,,,,,,
4633560000.0,70.41,-0.8999999761581421,12041169408.0,1849.3953339766435,72.0,-0.007281594909727573,299008.0,637.4273569583893,6.562458909620261e-15,0.0,2.353848457336426,-0.023538487032055855,0.062466781586408615,-0.023538483306765556,-3.725290298461914e-09,0.0,-0.016387352719902992,0.35312244296073914,0.7751562559808193,-0.14958634972572327,0.635660707950592,-0.1659736931324005,0.7447061538696289,2.214777946472168,0.996633768081665,,,,,,,
4633560000.0,73.31,-0.9900000095367432,12041169408.0,1778.052556446095,73.0,-0.006215944886207581,303104.0,639.7310009002686,6.170411404049503e-15,0.0,2.3584134578704834,-0.023584134876728058,0.0457126721739769,-0.023584134876728058,0.0,0.0,-0.0063657257705926895,0.3023361563682556,0.886345415273157,-0.20948462188243866,0.7985469698905945,-0.2158503383398056,0.8968020677566528,2.3036439418792725,0.9966690540313721,,,,,,,
4633560000.0,72.93,-1.059999942779541,12041169408.0,1794.1440263739091,74.0,-0.008653504773974419,307200.0,642.0139837265015,6.663072871226916e-15,0.0,2.3471152782440186,-0.023471154272556305,0.05805932357907295,-0.023471152409911156,-1.862645149230957e-09,0.0,-0.030805988237261772,0.33940795063972473,0.8631160852974584,-0.2281140387058258,0.774872362613678,-0.25892001390457153,0.9173727035522461,2.28298282623291,0.996757984161377,,,,,,,
4633560000.0,73.31,-1.1799999475479126,12041169408.0,1806.5169052047747,75.0,-0.007855511270463467,311296.0,644.2813303470612,7.32920668600201e-15,0.0,2.355588674545288,-0.02355589158833027,0.08016142249107361,-0.02355588600039482,-5.587935447692871e-09,0.0,-0.033496350049972534,0.3990485370159149,0.760308404613264,-0.18139225244522095,0.691359281539917,-0.21488860249519348,0.8150782585144043,2.2673466205596924,0.996666669845581,,,,,,,
4633560000.0,77.73,-0.6600000262260437,12041169408.0,1864.0730157968912,76.0,-0.0002715812297537923,315392.0,646.4786691665649,7.049916206369744e-15,0.0,2.3539676666259766,-0.023539666086435318,0.056366972625255585,-0.023539675399661064,8.381903171539307e-09,0.0,0.054832346737384796,0.33129164576530457,0.777910714483143,-0.12197662889957428,0.7202703356742859,-0.06714427471160889,0.7029860019683838,2.197338819503784,0.9970393180847168,,,,,,,
4633560000.0,77.67,-0.1599999964237213,12041169408.0,1812.7642136094046,77.0,-0.0032653692178428173,319488.0,648.7382018566132,6.923281392623437e-15,0.0,2.313471794128418,-0.023134710267186165,0.06290271133184433,-0.023134717717766762,7.450580596923828e-09,0.0,0.03311910107731819,0.3531840741634369,0.7483370857873688,-0.12311869859695435,0.6862572431564331,-0.08999959379434586,0.7040305137634277,2.2595326900482178,0.9967784881591797,,,,,,,
4633560000.0,76.38,-0.3400000035762787,12041169408.0,1816.8906317634876,78.0,-0.0020459522493183613,323584.0,650.9926028251648,7.518291544883482e-15,0.0,2.3321855068206787,-0.02332184836268425,0.07014107704162598,-0.023321853950619698,5.587935447692871e-09,0.0,0.03965351730585098,0.3724830448627472,0.6677154893138869,-0.09514877200126648,0.6192607879638672,-0.0554952546954155,0.6461769938468933,2.2544009685516357,0.9970855712890625,,,,,,,
4633560000.0,72.77,-0.41999998688697815,12041169408.0,1864.6743208620983,79.0,-0.003144713817164302,327680.0,653.1892330646515,8.252079575221671e-15,0.0,2.278817653656006,-0.022788183763623238,0.07093726843595505,-0.02278817631304264,-7.450580596923828e-09,0.0,0.033552564680576324,0.37521079182624817,0.7480299335163876,-0.15540625154972076,0.7247294187545776,-0.12185367941856384,0.747482180595398,2.1966302394866943,0.9966628551483154,,,,,,,
4633560000.0,71.7,-0.550000011920929,12041169408.0,1872.0111266737902,80.0,-0.0060283951461315155,331776.0,655.3772542476654,8.973724541228023e-15,0.0,2.304898500442505,-0.023048989474773407,0.06759922951459885,-0.02304898388683796,-4.6566128730773926e-09,0.0,-0.034856751561164856,0.36608222126960754,0.8400556809973346,-0.16461621224880219,0.8064494729042053,-0.19947296380996704,0.9153647422790527,2.188021183013916,0.9967968463897705,,,,,,,
4633560000.0,77.69,-0.4699999988079071,12041169408.0,1864.4666932411264,81.0,-0.0006871629739180207,335872.0,657.5741291046143,9.011888457699513e-15,0.0,2.3240959644317627,-0.02324095368385315,0.07681168615818024,-0.023240959271788597,5.587935447692871e-09,0.0,0.04759354144334793,0.38909533619880676,0.7417208226508447,-0.16805332899093628,0.8161811232566833,-0.12045978754758835,0.7656166553497314,2.1968748569488525,0.9969356060028076,,,,,,,
4633560000.0,80.62,-0.11999999731779099,12041169408.0,1876.627020598159,82.0,-0.0006887821364216506,339968.0,659.7567684650421,8.451572774959004e-15,0.0,2.321662425994873,-0.023216612637043,0.05930772423744202,-0.023216623812913895,1.1175870895385742e-08,0.0,0.0244357381016016,0.3435799181461334,0.7167763837210539,-0.026559144258499146,0.6643779277801514,-0.0021234042942523956,0.6455993056297302,2.1826393604278564,0.9969985485076904,,,,,,,
4633560000.0,81.21,-0.2800000011920929,12041169408.0,1880.1815301729846,83.0,-0.0034524628426879644,344064.0,661.9352815151215,9.251280297384312e-15,0.0,2.323948383331299,-0.023239485919475555,0.08203501999378204,-0.023239484056830406,-1.862645149230957e-09,0.0,-0.04211454093456268,0.40290945768356323,0.7093966870525656,-0.08332432806491852,0.6994771957397461,-0.1254388689994812,0.7474069595336914,2.1785130500793457,0.9965841770172119,,,,,,,
4633560000.0,84.52,-0.5400000214576721,12041169408.0,1859.2422939068877,84.0,-0.0030443063005805016,348160.0,664.1383295059204,1.0711917464156784e-14,0.0,2.301703453063965,-0.0230170376598835,0.08538679033517838,-0.0230170339345932,-3.725290298461914e-09,0.0,-0.008894147351384163,0.41320231556892395,0.5213369517422292,-0.03715888410806656,0.5248814821243286,-0.04605303704738617,0.5972384810447693,2.20304799079895,0.9967796802520752,,,,,,,
4633560000.0,87.9,-0.699999988079071,12041169408.0,1820.9737263712816,85.0,-0.0072010597214102745,352256.0,666.3876755237579,1.0710182740680807e-14,0.0,2.2726099491119385,-0.02272610180079937,0.11969681084156036,-0.02272609807550907,-3.725290298461914e-09,0.0,-0.108512282371521,0.4771522581577301,0.5653727289847403,0.025682233273983,0.5163131952285767,-0.0828300416469574,0.7237666249275208,2.2493460178375244,0.9969584941864014,,,,,,,
4633560000.0,91.14,-0.7300000190734863,12041169408.0,1825.346885911126,86.0,-0.0027756725903600454,356352.0,668.631632566452,1.1225395613045919e-14,0.0,2.2530734539031982,-0.022530734539031982,0.06363053619861603,-0.022530734539031982,0.0,0.0,-0.04622082784771919,0.353772908449173,0.6079531740243583,0.04110133647918701,0.3974063992500305,-0.0051194895058870316,0.5650092959403992,2.243957042694092,0.9967446327209473,,,,,,,
4633560000.0,84.93,-0.36000001430511475,12041169408.0,1861.50686378997,87.0,0.0006960546597838402,360448.0,670.8320004940033,1.0973860709029282e-14,0.0,2.2584621906280518,-0.022584620863199234,0.03816551715135574,-0.022584620863199234,9.313225746154785e-10,0.0,0.025830235332250595,0.2751041650772095,0.6686176249573303,0.06457722187042236,0.3457353115081787,0.09040744602680206,0.47789502143859863,2.2003679275512695,0.9968125820159912,,,,,,,
4633560000.0,76.49,-0.1599999964237213,12041169408.0,1770.8499777662835,88.0,-0.005018636584281921,364544.0,673.1450140476227,1.1608769501236793e-14,0.0,2.216960906982422,-0.02216961607336998,0.06612799316644669,-0.022169608622789383,-6.51925802230835e-09,0.0,-0.05087234079837799,0.3601383864879608,0.7034655941950241,-0.0630350112915039,0.4508371651172638,-0.1139073520898819,0.6613507866859436,2.3130135536193848,0.9969310760498047,,,,,,,
4633560000.0,74.24,-0.4699999988079071,12041169408.0,1833.8319142554299,89.0,-0.0033499638084322214,368640.0,675.3785884380341,1.288205653260377e-14,0.0,2.1865620613098145,-0.021865634247660637,0.08037044107913971,-0.021865619346499443,-1.4901161193847656e-08,0.0,-0.07433448731899261,0.39402180910110474,0.5799612105805203,0.0480862632393837,0.33743011951446533,-0.02624822035431862,0.6079607605934143,2.233574390411377,0.9971413612365723,,,,,,,
4633560000.0,76.07,-0.27000001072883606,12041169408.0,1856.3242882757424,90.0,-0.0008386787958443165,372736.0,677.5850994586945,1.3013895516778007e-14,0.0,2.126239776611328,-0.0212623979896307,0.07766605913639069,-0.0212623979896307,0.0,0.0,-0.026328399777412415,0.39328956604003906,0.5607312406515484,0.03404206410050392,0.38186633586883545,0.007713664323091507,0.5933996438980103,2.2065110206604004,0.9969465732574463,,,,,,,
4633560000.0,78.55,-0.11999999731779099,12041169408.0,1866.2358414300124,91.0,-0.00028033516719006,376832.0,679.7798917293549,1.432187701766452e-14,0.0,2.124436616897583,-0.021244361996650696,0.039192065596580505,-0.021244365721940994,4.6566128730773926e-09,0.0,-0.013121409341692924,0.27969813346862793,0.6147418972817352,0.03989363834261894,0.3168155550956726,0.026772229000926018,0.45062336325645447,2.1947922706604004,0.997016429901123,,,,,,,
4633560000.0,80.84,-0.09000000357627869,12041169408.0,1833.7718213303444,92.0,-0.0007024164078757167,380928.0,682.01353931427,1.6426096594024386e-14,0.0,2.019357442855835,-0.020193567499518394,0.038319073617458344,-0.020193573087453842,5.587935447692871e-09,0.0,0.006075823213905096,0.27680307626724243,0.7542390477895197,-0.055636074393987656,0.44977524876594543,-0.04956025630235672,0.55836021900177,2.233647584915161,0.9968502521514893,,,,,,,
4633560000.0,77.53,-0.18000000715255737,12041169408.0,1841.3243471448002,93.0,-0.002395064104348421,385024.0,684.238025188446,1.7577952982072986e-14,0.0,1.9856929779052734,-0.019856929779052734,0.031765636056661606,-0.019856929779052734,0.0,0.0,0.004794555716216564,0.25203925371170044,0.7856531336543975,-0.08021174371242523,0.47717052698135376,-0.0754171758890152,0.5443893671035767,2.2244858741760254,0.9966468811035156,,,,,,,
4633560000.0,75.19,-0.20000000298023224,12041169408.0,1877.4588350902131,94.0,-0.0005646943463943899,389120.0,686.4196975231171,1.6311604844609917e-14,0.0,2.0225040912628174,-0.020225048065185547,0.05011570453643799,-0.02022504061460495,-7.450580596923828e-09,0.0,0.00039709731936454773,0.31663185358047485,0.42988044582050244,0.006571049802005291,0.2793661057949066,0.006968146190047264,0.4193451702594757,2.1816723346710205,0.9970736503601074,,,,,,,
4633560000.0,75.44,-0.05999999865889549,12041169408.0,1889.8016357578713,95.0,-0.0011320456396788359,393216.0,688.5871207714081,1.7813875374805832e-14,0.0,2.0183255672454834,-0.020183267071843147,0.03962907940149307,-0.020183255895972252,-1.1175870895385742e-08,0.0,0.008040323853492737,0.28144776821136475,0.7691021244472734,-0.052414145320653915,0.4325065314769745,-0.04437381401658058,0.5857170224189758,2.1674232482910156,0.9969897270202637,,,,,,,
,,,,,,,,,,,,,,,,,,,,,,,,,,0.041194166988134384,0.14430683851242065,0.08089400082826614,0.041194166988134384,0.14430683851242065,0.08089400082826614,
,,,,,,,,,,,,,,,,,,,,,,,,,,0.008596363477408886,0.08193229138851166,0.07580995559692383,0.008596363477408886,0.08193229138851166,0.07580995559692383,
,,,,,,,,,,,,,,,,,,,,,,,,,,0.007199467159807682,0.07653781771659851,0.07217448204755783,0.007199467159807682,0.07653781771659851,0.07217448204755783,
,,,,,,,,,,,,,,,,,,,,,,,,,,0.007446647621691227,0.07443387061357498,0.07268410921096802,0.007446647621691227,0.07443387061357498,0.07268410921096802,
,,,,,,,,,,,,,,,,,,,,,,,,,,0.005520229693502188,0.0695611909031868,0.06542973965406418,0.005520229693502188,0.0695611909031868,0.06542973965406418,
,,,,,,,,,,,,,,,,,,,,,,,,,,0.004737472161650658,0.06670515984296799,0.06386229395866394,0.004737472161650658,0.06670515984296799,0.06386229395866394,
,,,,,,,,,,,,,,,,,,,,,,,,,,,,,,,,-0.77
4633560000.0,77.02,-0.15000000596046448,11990521856.0,17.0866532207407,96.0,-0.0018429826013743877,397312.0,928.3063886165619,1.1886325257393082e-14,0.0,2.0399036407470703,-0.02039903774857521,0.055076226592063904,-0.02039903588593006,-9.313225746154785e-10,0.0,0.032005347311496735,0.3303857743740082,0.7184226498879084,-0.10257532447576523,0.5725937485694885,-0.0705699771642685,0.6226191520690918,239.7192678451538,0.9968345165252686,,,,,,,
4633560000.0,75.24,-0.019999999552965164,12041169408.0,1864.9749164391517,97.0,0.002414284273982048,401408.0,930.5026648044586,1.1109169140155473e-14,0.0,2.1170287132263184,-0.021170295774936676,0.06123245134949684,-0.02117028646171093,-9.313225746154785e-09,0.0,0.07264965772628784,0.342367559671402,0.6941207870575944,-0.066518634557724,0.5287575721740723,0.006131023168563843,0.619038462638855,2.1962761878967285,0.9972743988037109,,,,,,,
4633560000.0,73.17,0.1599999964237213,12041169408.0,1736.1219272151109,98.0,-0.0018491072114557028,405504.0,932.861946105957,1.0279971318638559e-14,0.0,2.1208863258361816,-0.021208858117461205,0.056818775832653046,-0.021208863705396652,5.587935447692871e-09,0.0,-0.023747609928250313,0.3363052308559418,0.7996831282677859,-0.06881938129663467,0.5858830809593201,-0.09256699681282043,0.7514064311981201,2.359281301498413,0.997483491897583,,,,,,,
4633560000.0,76.19,-0.05000000074505806,12041169408.0,1895.1233388312185,99.0,0.001853336114436388,409600.0,935.0232830047607,9.558326352632207e-15,0.0,2.214324474334717,-0.022143252193927765,0.0474558025598526,-0.022143244743347168,-7.450580596923828e-09,0.0,0.04250939190387726,0.30516764521598816,0.7040356225411222,0.019291330128908157,0.4736444354057312,0.061800722032785416,0.560943067073822,2.161336898803711,0.9970364570617676,,,,,,,
4633560000.0,79.31,-0.10000000149011612,12041169408.0,1798.494736798027,100.0,-0.0015706571284681559,413696.0,937.3007431030273,1.066507993030541e-14,0.0,2.1625492572784424,-0.02162548527121544,0.06763724237680435,-0.021625492721796036,7.450580596923828e-09,0.0,0.043024107813835144,0.3653163015842438,0.8270755972852363,-0.22521525621414185,0.7705559134483337,-0.1821911484003067,0.8784982562065125,2.2774600982666016,0.9968891143798828,,,,,,,
4633560000.0,78.11,-0.009999999776482582,12041169408.0,1830.6736700235667,101.0,0.001430656062439084,417792.0,939.5381708145142,9.483733243165204e-15,0.0,2.284052848815918,-0.022840529680252075,0.05652609467506409,-0.022840527817606926,-9.313225746154785e-10,0.0,0.03099803626537323,0.3348412811756134,0.8193955211431205,-0.008935153484344482,0.6355473399162292,0.022062882781028748,0.7879066467285156,2.2374277114868164,0.9967184066772461,,,,,,,
4633560000.0,79.5,0.25,12041169408.0,1893.7197562219585,102.0,-0.0011471315519884229,421888.0,941.7011096477509,9.646797249907024e-15,0.0,2.292013168334961,-0.022920137271285057,0.04487411677837372,-0.02292013168334961,-5.122274160385132e-09,0.0,0.012105789966881275,0.29937195777893066,0.8498184584529223,-0.09342105686664581,0.6967686414718628,-0.08131525665521622,0.7725076675415039,2.1629388332366943,0.9968423843383789,,,,,,,
4633560000.0,81.27,0.10999999940395355,12041169408.0,1869.2754156748533,103.0,0.0038798251189291477,425984.0,943.8923330307007,8.954642582992278e-15,0.0,2.3086934089660645,-0.02308693155646324,0.04418706148862839,-0.02308693341910839,1.862645149230957e-09,0.0,0.07635512948036194,0.28733980655670166,0.8251363533135552,0.01015806570649147,0.6639363765716553,0.08651319891214371,0.6871412992477417,2.191223382949829,0.9968256950378418,,,,,,,
4633560000.0,83.95,-0.019999999552965164,12041169408.0,1845.7054934221799,104.0,-0.002447461010888219,430080.0,946.1115386486053,1.0253950466498907e-14,0.0,2.2234692573547363,-0.02223469875752926,0.08214198797941208,-0.022234691306948662,-7.450580596923828e-09,0.0,0.01286108698695898,0.4051649868488312,0.6860332202554689,-0.05406275764107704,0.6672305464744568,-0.04120166599750519,0.7230861783027649,2.219205617904663,0.997128963470459,,,,,,,
4633560000.0,88.23,-0.33000001311302185,12041169408.0,1788.6444557950545,105.0,-0.0030249208211898804,434176.0,948.4015409946442,1.1967857260763992e-14,0.0,2.1704492568969727,-0.021704480051994324,0.09029581397771835,-0.02170449122786522,1.1175870895385742e-08,0.0,-0.03383274003863335,0.42366352677345276,0.813517180164197,-0.11044973134994507,0.8684970736503601,-0.14428246021270752,0.9810738563537598,2.2900023460388184,0.9969742298126221,,,,,,,
4633560000.0,81.49,-0.10000000149011612,12041169408.0,1849.9995567720514,106.0,0.00202026660554111,438272.0,950.6155955791473,9.972925263390664e-15,0.0,2.231128215789795,-0.022311273962259293,0.0766134187579155,-0.02231128141283989,7.450580596923828e-09,0.0,-0.018243856728076935,0.3910643756389618,0.5836550243316941,0.15714845061302185,0.5263785123825073,0.13890458643436432,0.6060683131217957,2.214054584503174,0.9967250823974609,,,,,,,
4633560000.0,79.16,0.18000000715255737,12041169408.0,1878.9208070409102,107.0,-0.00028894247952848673,442368.0,952.7955703735352,1.0184561527459834e-14,0.0,2.293731689453125,-0.02293732389807701,0.0658898577094078,-0.022937316447496414,-7.450580596923828e-09,0.0,-0.025741860270500183,0.36214515566825867,0.7253592392358106,0.14230471849441528,0.5557948350906372,0.1165628731250763,0.691035270690918,2.1799747943878174,0.9969701766967773,,,,,,,
4633560000.0,86.85,-0.11999999731779099,12041169408.0,1890.9612775951193,108.0,-0.001878975541330874,446464.0,954.9616644382477,1.061650767297806e-14,0.0,2.2442474365234375,-0.022442465648055077,0.08323443681001663,-0.022442473098635674,7.450580596923828e-09,0.0,-0.04250705987215042,0.40583524107933044,0.8002095155361413,0.09953943639993668,0.7725090384483337,0.057032376527786255,0.9079508781433105,2.1660940647125244,0.9970908164978027,,,,,,,
4633560000.0,91.99,-0.18000000715255737,12041169408.0,1883.5128532093145,109.0,-0.0010122254025191069,450560.0,957.1363244056702,1.0436096431476471e-14,0.0,2.220370292663574,-0.022203702479600906,0.07940653711557388,-0.022203702479600906,0.0,0.0,-0.04070766642689705,0.3964774012565613,0.8074789944941072,0.12677407264709473,0.7588093876838684,0.08606638014316559,0.9036065936088562,2.1746599674224854,0.996875524520874,,,,,,,
4633560000.0,84.49,-0.25,12041169408.0,1837.961116876923,110.0,-0.0027472598012536764,454656.0,959.3648808002472,1.1575809755193234e-14,0.0,2.2395215034484863,-0.022395214065909386,0.09731041640043259,-0.022395214065909386,0.0,0.0,-0.036392755806446075,0.43970856070518494,0.7047228548350051,0.013788832351565361,0.7030768990516663,-0.02260393090546131,0.8091890215873718,2.2285563945770264,0.9967255592346191,,,,,,,
4633560000.0,83.7,-0.46000000834465027,12041169408.0,1853.977863249422,111.0,-0.003763222601264715,458752.0,961.5741844177246,1.1738873761935054e-14,0.0,2.188690185546875,-0.021886905655264854,0.07877709716558456,-0.021886901929974556,-3.725290298461914e-09,0.0,-0.048369746655225754,0.3940209150314331,0.7732704319345787,0.07864312827587128,0.6867315173149109,0.030273376032710075,0.8274946212768555,2.209303617477417,0.9967365264892578,,,,,,,
4633560000.0,85.05,-0.019999999552965164,12041169408.0,1865.2057424454792,112.0,0.004932350013405085,462848.0,963.7701888084412,1.0711917464156784e-14,0.0,2.2957444190979004,-0.022957434877753258,0.03805927932262421,-0.022957444190979004,9.313225746154785e-09,0.0,0.020686624571681023,0.27515286207199097,0.7621625401940351,0.19467490911483765,0.5354407429695129,0.21536152064800262,0.5642011165618896,2.1960043907165527,0.9966650009155273,,,,,,,
4633560000.0,83.61,-0.029999999329447746,12041169408.0,1858.3396964825731,113.0,-0.0034822658635675907,466944.0,965.9743068218231,1.350135281352749e-14,0.0,2.1759872436523438,-0.021759865805506706,0.09014356136322021,-0.021759871393442154,5.587935447692871e-09,0.0,-0.06800957024097443,0.41917145252227783,0.8503478522469765,-0.08633390814065933,0.9316556453704834,-0.15434347093105316,1.0835531949996948,2.204118013381958,0.9968810081481934,,,,,,,
4633560000.0,87.46,0.07000000029802322,12041169408.0,1881.8893155851636,114.0,0.0030542220920324326,471040.0,968.1508429050446,1.2623582734683225e-14,0.0,2.174483299255371,-0.021744824945926666,0.06245649978518486,-0.021744832396507263,7.450580596923828e-09,0.0,0.04198411479592323,0.35097065567970276,0.8472051345983282,-0.09726645052433014,0.8575881719589233,-0.055282339453697205,0.8978761434555054,2.1765360832214355,0.9966790676116943,,,,,,,
4633560000.0,80.75,0.2800000011920929,12041169408.0,1821.9159261055815,115.0,0.00029159511905163527,475136.0,970.3990256786346,1.2243678293444304e-14,0.0,2.2098636627197266,-0.022098638117313385,0.08091208338737488,-0.022098636254668236,-1.862645149230957e-09,0.0,-0.007154148072004318,0.4022592306137085,0.5715355988816753,0.03365815058350563,0.5664085149765015,0.026504002511501312,0.6145378947257996,2.248182773590088,0.9971964359283447,,,,,,,
4633560000.0,77.59,0.09000000357627869,12041169408.0,1814.6391353463869,116.0,-0.0005840930389240384,479232.0,972.6562237739563,1.4795456526606188e-14,0.0,2.085723400115967,-0.02085724100470543,0.06751984357833862,-0.020857233554124832,-7.450580596923828e-09,0.0,0.005851639434695244,0.367475688457489,0.7641158916571354,-0.0014416975900530815,0.6738622784614563,0.004409944638609886,0.7566226124763489,2.2571980953216553,0.9970438480377197,,,,,,,
4633560000.0,88.57,0.09000000357627869,12041169408.0,1852.5064920710931,117.0,0.0,483328.0,974.8672821521759,1.4177894969158444e-14,0.0,2.1014909744262695,-0.021014917641878128,0.0586172379553318,-0.02101491019129753,-7.450580596923828e-09,0.0,0.020427998155355453,0.34182700514793396,0.8380132691917044,-0.09786441922187805,0.8569222688674927,-0.0774364322423935,0.8493107557296753,2.2110583782196045,0.9970486164093018,,,,,,,
4633560000.0,86.37,-0.20999999344348907,12041169408.0,1871.1097457787257,118.0,-0.0002929192269220948,487424.0,977.056357383728,1.5419956977957838e-14,0.0,2.0301008224487305,-0.020301006734371185,0.05903615802526474,-0.020301008597016335,1.862645149230957e-09,0.0,0.02866951748728752,0.3424602150917053,0.8149429999768355,-0.12473064661026001,0.7601205706596375,-0.096061110496521,0.7960813045501709,2.189075231552124,0.9966464042663574,,,,,,,
4633560000.0,76.11,-0.11999999731779099,12041169408.0,1842.1861902538171,119.0,0.0,491520.0,979.2798025608063,1.702804564018834e-14,0.0,1.9318859577178955,-0.01931885816156864,0.056592438369989395,-0.01931886002421379,1.862645149230957e-09,0.0,0.009690987877547741,0.3363310694694519,0.8716176905913167,-0.14822441339492798,0.8283690214157104,-0.13853341341018677,0.9386731386184692,2.223445177078247,0.9967639446258545,,,,,,,
4633560000.0,79.84,-0.019999999552965164,12041169408.0,1825.048846348945,120.0,0.0001470564166083932,495616.0,981.5241260528564,1.658742587729023e-14,0.0,1.896969199180603,-0.01896970346570015,0.04065701365470886,-0.018969692289829254,-1.1175870895385742e-08,0.0,0.04253184795379639,0.282000869512558,0.8536965165522088,-0.09956005215644836,0.7278128266334534,-0.05702819302678108,0.737264096736908,2.244323492050171,0.9968018531799316,,,,,,,
4633560000.0,83.92,0.20000000298023224,12041169408.0,1826.6992721855804,121.0,0.003684442490339279,499712.0,983.7664217948914,1.778785452266618e-14,0.0,1.9213353395462036,-0.019213352352380753,0.039103664457798004,-0.019213352352380753,0.0,0.0,0.06341442465782166,0.27240419387817383,0.7708330769624464,0.09498579800128937,0.5274888873100281,0.15840022265911102,0.5690335035324097,2.242295742034912,0.9967796802520752,,,,,,,
4633560000.0,85.82,0.5699999928474426,12041169408.0,1863.9085944416477,122.0,0.004577616695314646,503808.0,985.9639544487,1.67765107361717e-14,0.0,2.0393636226654053,-0.02039363980293274,0.03008221462368965,-0.02039363607764244,-3.725290298461914e-09,0.0,0.0030945027247071266,0.24529480934143066,0.798044947414321,0.13845741748809814,0.47881758213043213,0.1415519118309021,0.545834481716156,2.1975326538085938,0.9968397617340088,,,,,,,
4633560000.0,85.06,0.47999998927116394,12041169408.0,1836.259669188568,123.0,0.0010352313984185457,507904.0,988.1945757865906,1.716335407131453e-14,0.0,1.9500846862792969,-0.019500846043229103,0.04592890292406082,-0.019500846043229103,0.0,0.0,0.004103049635887146,0.3030897378921509,0.8777433831483925,-0.07564345747232437,0.7796024084091187,-0.07154040783643723,0.8668322563171387,2.230621337890625,0.9968061447143555,,,,,,,
4633560000.0,79.91,0.11999999731779099,12041169408.0,1834.3531457794395,124.0,0.0005929030012339354,512000.0,990.4275155067444,1.570098218106608e-14,0.0,1.9808210134506226,-0.019808221608400345,0.035783521831035614,-0.01980821043252945,-1.0244548320770264e-08,0.0,0.013334105722606182,0.26722028851509094,0.8483208502779588,0.006300175562500954,0.6077893376350403,0.01963428035378456,0.6861301064491272,2.2329397201538086,0.9969244003295898,,,,,,,
4633560000.0,76.52,0.3499999940395355,12041169408.0,1806.9385268101023,125.0,0.004454598296433687,516096.0,992.694333076477,1.626129786380659e-14,0.0,2.088163375854492,-0.02088163048028946,0.035655729472637177,-0.020881634205579758,2.7939677238464355e-09,0.0,0.01963411644101143,0.2663517892360687,0.8368900980876103,0.14710184931755066,0.5165019035339355,0.16673597693443298,0.6595010161399841,2.266817569732666,0.997124195098877,,,,,,,
4633560000.0,77.63,0.14000000059604645,12041169408.0,1866.5898712282212,126.0,-0.002230400685220957,520192.0,994.8887090682983,1.5584755708175635e-14,0.0,2.02308988571167,-0.020230889320373535,0.06435377895832062,-0.02023089863359928,8.381903171539307e-09,0.0,-0.031901776790618896,0.35738077759742737,0.7904647689059547,0.015028752386569977,0.6469552516937256,-0.01687302440404892,0.7807331681251526,2.194375991821289,0.9968593120574951,,,,,,,
4633560000.0,76.23,0.0,12041169408.0,1871.938511037003,127.0,0.003576583694666624,524288.0,997.0768151283264,1.58640461878079e-14,0.0,2.0941076278686523,-0.020941082388162613,0.04333703964948654,-0.020941074937582016,-7.450580596923828e-09,0.0,0.005039823241531849,0.29439741373062134,0.8360684636063546,0.036998387426137924,0.6658888459205627,0.0420382097363472,0.7271143794059753,2.188106060028076,0.996868371963501,,,,,,,
,,,,,,,,,,,,,,,,,,,,,,,,,,0.009556722827255726,0.07614417374134064,0.05657774582505226,0.009556722827255726,0.07614417374134064,0.05657774582505226,
,,,,,,,,,,,,,,,,,,,,,,,,,,0.006226819008588791,0.054076217114925385,0.048309557139873505,0.006226819008588791,0.054076217114925385,0.048309557139873505,
,,,,,,,,,,,,,,,,,,,,,,,,,,0.0051736244931817055,0.04921892657876015,0.04765387251973152,0.0051736244931817055,0.04921892657876015,0.04765387251973152,
,,,,,,,,,,,,,,,,,,,,,,,,,,0.004645090084522963,0.047018855810165405,0.044679004698991776,0.004645090084522963,0.047018855810165405,0.044679004698991776,
,,,,,,,,,,,,,,,,,,,,,,,,,,0.004926480818539858,0.04543047398328781,0.04420430213212967,0.004926480818539858,0.04543047398328781,0.04420430213212967,
,,,,,,,,,,,,,,,,,,,,,,,,,,0.004787636920809746,0.04395289346575737,0.04343254119157791,0.004787636920809746,0.04395289346575737,0.04343254119157791,
,,,,,,,,,,,,,,,,,,,,,,,,,,,,,,,,-0.32
4633612000.0,83.07,0.2800000011920929,11990521856.0,17.053067891714395,128.0,0.0014910362660884857,528384.0,1237.2682003974915,1.3633191797701727e-14,0.0,2.1336846351623535,-0.02133684977889061,0.06606017053127289,-0.02133684605360031,-3.725290298461914e-09,0.0,-0.015067579224705696,0.36321553587913513,0.8511164686220511,0.02655414491891861,0.8198865056037903,0.011486571282148361,0.941328227519989,240.19138526916504,0.996997594833374,,,,,,,
4633612000.0,84.17,0.09000000357627869,12041169408.0,1893.843966352376,129.0,-0.0005969058256596327,532480.0,1239.4309973716736,1.4110240753595349e-14,0.0,2.0815844535827637,-0.020815839990973473,0.05524664372205734,-0.02081584371626377,3.725290298461914e-09,0.0,0.007906163111329079,0.33235183358192444,0.8747693625513018,-0.12335263937711716,0.8592732548713684,-0.11544647812843323,0.9391669034957886,2.162796974182129,0.9974863529205322,,,,,,,
4633612000.0,82.38,0.09000000357627869,12041169408.0,1777.2119742792643,130.0,0.0008960145059973001,536576.0,1241.7357308864594,1.3263695697318667e-14,0.0,2.1846261024475098,-0.021846260875463486,0.06137551739811897,-0.021846260875463486,9.313225746154785e-10,0.0,-0.03089730814099312,0.34903600811958313,0.8757298769044487,0.1473456621170044,0.8861448764801025,0.11644835770130157,0.9901177883148193,2.3047335147857666,0.9968039989471436,,,,,,,
4633612000.0,83.56,0.17000000178813934,12041169408.0,1790.364740509249,131.0,0.0010465565137565136,540672.0,1244.0235328674316,1.3558598688234724e-14,0.0,2.1272637844085693,-0.02127263695001602,0.0750449001789093,-0.02127263695001602,-9.313225746154785e-10,0.0,0.00030278274789452553,0.38746145367622375,0.8640128630771251,-0.03506673872470856,0.9292086362838745,-0.03476394712924957,1.0507020950317383,2.28780198097229,0.9964871406555176,,,,,,,
4633612000.0,86.37,0.3100000023841858,12041169408.0,1862.236502801614,132.0,0.004046599380671978,544768.0,1246.2230386734009,1.1981735048571807e-14,0.0,2.187242031097412,-0.021872423589229584,0.06282395869493484,-0.021872419863939285,-3.725290298461914e-09,0.0,-0.006276743486523628,0.35445621609687805,0.7251403573430428,0.1486150026321411,0.6528722643852234,0.14233826100826263,0.6760939955711365,2.1995058059692383,0.9976370334625244,,,,,,,
4633612000.0,89.08,0.49000000953674316,12041169408.0,1839.708272732082,133.0,0.00255098519846797,548864.0,1248.4494786262512,1.1881121086965152e-14,0.0,2.239149808883667,-0.022391505539417267,0.03803956136107445,-0.02239149808883667,-7.450580596923828e-09,0.0,-0.028072340413928032,0.2744256854057312,0.8335232451131708,0.27587318420410156,0.6286296248435974,0.2478008270263672,0.67258620262146,2.226439952850342,0.9967062473297119,,,,,,,
4633612000.0,84.38,0.3199999928474426,12041169408.0,1867.82556637784,134.0,0.001352559425868094,552960.0,1250.6424028873444,1.2420620087993939e-14,0.0,2.1864547729492188,-0.02186454087495804,0.04997505247592926,-0.021864546462893486,5.587935447692871e-09,0.0,-0.02745157666504383,0.3149932324886322,0.9111269017706829,0.09152908623218536,0.943717360496521,0.06407749652862549,1.0566132068634033,2.1929242610931396,0.9968078136444092,,,,,,,
4633612000.0,85.79,0.3199999928474426,12041169408.0,1833.4579145100515,135.0,0.001803301041945815,557056.0,1252.8764328956604,1.2875117638699862e-14,0.0,2.14483642578125,-0.02144836075603962,0.06041090562939644,-0.021448364481329918,3.725290298461914e-09,0.0,-0.008593347854912281,0.3475305140018463,0.8879667851021738,0.07410229742527008,0.8663545250892639,0.06550895422697067,1.0382921695709229,2.23403000831604,0.9966387748718262,,,,,,,
4633612000.0,84.6,0.4300000071525574,12041169408.0,1895.718279553044,136.0,0.004516030661761761,561152.0,1255.0370914936066,1.3811868315727338e-14,0.0,2.1353111267089844,-0.021353106945753098,0.043462179601192474,-0.021353110671043396,3.725290298461914e-09,0.0,0.016534186899662018,0.2944013178348541,0.901020624620481,0.03549264743924141,0.8550183773040771,0.05202683061361313,0.9357662796974182,2.160658597946167,0.9964513778686523,,,,,,,
4633612000.0,82.62,0.5199999809265137,12041169408.0,1809.4358039306553,137.0,0.0036185826174914837,565248.0,1257.3007805347443,1.2538581284360362e-14,0.0,2.211982250213623,-0.022119836881756783,0.029653023928403854,-0.02211982198059559,-1.4901161193847656e-08,0.0,0.036680616438388824,0.24077942967414856,0.8936897364543119,0.12384353578090668,0.7149808406829834,0.1605241596698761,0.7384682297706604,2.2636890411376953,0.9971423149108887,,,,,,,
4633612000.0,85.22,0.5600000023841858,12041169408.0,1857.1564668399378,138.0,0.0034749596379697323,569344.0,1259.5063028335571,1.2689502226770344e-14,0.0,2.163911819458008,-0.021639123558998108,0.03324439004063606,-0.02163911797106266,-6.51925802230835e-09,0.0,0.04135853052139282,0.2545468211174011,0.9097335581779252,0.014073053374886513,0.8884096145629883,0.05543157458305359,0.8472360968589783,2.205522298812866,0.996654748916626,,,,,,,
4633612000.0,80.54,0.7699999809265137,12041169408.0,1848.7942911208127,139.0,0.008173559792339802,573440.0,1261.7218008041382,1.239286451237831e-14,0.0,2.2244319915771484,-0.022244326770305634,0.029677776619791985,-0.022244319319725037,-7.450580596923828e-09,0.0,0.025981133803725243,0.24227024614810944,0.8543621533340962,0.29575997591018677,0.5939586162567139,0.3217410743236542,0.6348379850387573,2.2154979705810547,0.9969727993011475,,,,,,,
4633612000.0,76.67,0.8100000023841858,12041169408.0,1804.01479135381,140.0,0.006217052228748798,577536.0,1263.9922921657562,1.244143676970566e-14,0.0,2.1861531734466553,-0.021861523389816284,0.033881187438964844,-0.02186153084039688,7.450580596923828e-09,0.0,0.03422021120786667,0.2580845355987549,0.9090942715454384,0.11696788668632507,0.8664078712463379,0.15118810534477234,0.8559852838516235,2.270491361618042,0.9971566200256348,,,,,,,
4633612000.0,79.72,0.7200000286102295,12041169408.0,1811.7620937886143,141.0,0.005925256758928299,581632.0,1266.253074645996,1.3395534681492904e-14,0.0,2.2008018493652344,-0.02200801856815815,0.05229013413190842,-0.02200801856815815,0.0,0.0,0.043477609753608704,0.32049188017845154,0.8692041015586556,0.12107526510953903,0.9077680706977844,0.16455288231372833,0.8861759305000305,2.260782480239868,0.9968235492706299,,,,,,,
4633612000.0,81.61,0.8100000023841858,12041169408.0,1832.2563164797887,142.0,0.005476716905832291,585728.0,1268.4885697364807,1.2465722898369336e-14,0.0,2.2538681030273438,-0.022538673132658005,0.033437106758356094,-0.0225386805832386,7.450580596923828e-09,0.0,0.018585611134767532,0.25796324014663696,0.9118666790652186,0.14703184366226196,0.8518223166465759,0.1656174659729004,0.8689358830451965,2.235495090484619,0.9969360828399658,,,,,,,
4633612000.0,85.07,0.6899999976158142,12041169408.0,1877.8627031438261,143.0,0.003045896301046014,589824.0,1270.669772863388,1.2085818457130415e-14,0.0,2.2270593643188477,-0.022270597517490387,0.06880100816488266,-0.02227059379220009,-3.725290298461914e-09,0.0,-0.002943139523267746,0.3709810674190521,0.8429701178410164,0.11205361038446426,0.9312636852264404,0.10911048203706741,0.9361826777458191,2.1812031269073486,0.9969303607940674,,,,,,,
4633612000.0,84.73,0.5,12041169408.0,1876.6835999871973,144.0,0.003966652788221836,593920.0,1272.852346420288,1.1759690443646775e-14,0.0,2.296988010406494,-0.02296987734735012,0.041558630764484406,-0.02296987920999527,1.862645149230957e-09,0.0,0.005954745691269636,0.2882743179798126,0.8778681399765063,0.16523334383964539,0.7928784489631653,0.171188086271286,0.8248813152313232,2.1825735569000244,0.9968640804290771,,,,,,,
4633612000.0,82.36,0.5099999904632568,12041169408.0,1854.0116762616278,145.0,0.004889820236712694,598016.0,1275.0616097450256,1.1832548829637801e-14,0.0,2.2799181938171387,-0.0227991733700037,0.05792124569416046,-0.022799180820584297,7.450580596923828e-09,0.0,0.011217300780117512,0.3402130603790283,0.771055398728205,0.1818370223045349,0.6336269378662109,0.19305430352687836,0.7110265493392944,2.209263324737549,0.9971978664398193,,,,,,,
4633612000.0,84.91,0.7699999809265137,12041169408.0,1880.0689813286278,146.0,0.008722368627786636,602112.0,1277.2402532100677,1.1417949918879344e-14,0.0,2.2856826782226562,-0.022856825962662697,0.04127955809235573,-0.022856825962662697,0.0,0.0,0.049892645329236984,0.2830006778240204,0.8853060656046716,0.23034489154815674,0.880367636680603,0.2802375257015228,0.8356361985206604,2.1786434650421143,0.9974279403686523,,,,,,,
4633612000.0,84.16,1.1799999475479126,12041169408.0,1776.7175610839217,147.0,0.00781620480120182,606208.0,1279.5456280708313,1.1882855810441129e-14,0.0,2.2730636596679688,-0.022730641067028046,0.045879948884248734,-0.022730635479092598,-5.587935447692871e-09,0.0,0.018070049583911896,0.30241644382476807,0.8321582045507911,0.3367473781108856,0.7235196828842163,0.3548174202442169,0.7381681799888611,2.30537486076355,0.9985249042510986,,,,,,,
4633612000.0,77.44,0.7099999785423279,12041169408.0,1869.5199208222903,148.0,0.0029148184694349766,610304.0,1281.736564874649,1.1803058530546195e-14,0.0,2.289355754852295,-0.022893549874424934,0.06597568094730377,-0.02289355732500553,7.450580596923828e-09,0.0,-0.027189714834094048,0.3622763156890869,0.803906409337049,0.24780577421188354,0.7125393152236938,0.22061607241630554,0.8181034326553345,2.190936803817749,0.9970400333404541,,,,,,,
4633612000.0,78.72,0.3199999928474426,12041169408.0,1861.6353566039525,149.0,0.001997967716306448,614400.0,1283.9367809295654,1.1346826256364295e-14,0.0,2.304687976837158,-0.02304687164723873,0.05954360589385033,-0.02304687909781933,7.450580596923828e-09,0.0,-0.03781723976135254,0.3430536389350891,0.7828078921268372,0.21007037162780762,0.6650025844573975,0.17225313186645508,0.7361054420471191,2.200216054916382,0.9968616962432861,,,,,,,
4633612000.0,81.46,0.5299999713897705,12041169408.0,1838.9629095055304,150.0,0.006467236205935478,618496.0,1286.1641232967377,1.1348560979840272e-14,0.0,2.2957870960235596,-0.022957859560847282,0.03356223553419113,-0.022957870736718178,1.1175870895385742e-08,0.0,0.005833559203892946,0.25904983282089233,0.7384910976740318,0.3670317530632019,0.4829031825065613,0.37286531925201416,0.5065706968307495,2.227342367172241,0.9967007637023926,,,,,,,
4633612000.0,80.96,0.7900000214576721,12041169408.0,1789.9965089592718,151.0,0.005861338227987289,622592.0,1288.452395915985,1.0954778750793537e-14,0.0,2.328700065612793,-0.023287007585167885,0.04098561406135559,-0.023287000134587288,-7.450580596923828e-09,0.0,-0.04791204258799553,0.28230321407318115,0.6962347326021796,0.3128501772880554,0.43630462884902954,0.2649381160736084,0.5122085213661194,2.2882726192474365,0.996751070022583,,,,,,,
4633612000.0,81.13,0.6200000047683716,12041169408.0,1842.566526381721,152.0,0.004171810112893581,626688.0,1290.6753821372986,1.1525502774389906e-14,0.0,2.3057875633239746,-0.02305787429213524,0.05906236171722412,-0.02305787429213524,0.0,0.0,-0.014310859143733978,0.343436598777771,0.6967717137335623,0.23515859246253967,0.5559263229370117,0.2208477258682251,0.6236799359321594,2.2229862213134766,0.997908353805542,,,,,,,
4633612000.0,82.96,0.5400000214576721,12041169408.0,1850.1079364204165,153.0,0.0044873300939798355,630784.0,1292.8893070220947,1.1591422266477025e-14,0.0,2.33359956741333,-0.02333599515259266,0.0512109212577343,-0.02333599515259266,0.0,0.0,-0.02072186768054962,0.3194015622138977,0.7425495171823862,0.3383747637271881,0.4786868393421173,0.3176528811454773,0.6294919848442078,2.2139248847961426,0.9972169399261475,,,,,,,
4633612000.0,85.27,0.5699999928474426,12041169408.0,1873.6278743857088,154.0,0.0034094101283699274,634880.0,1295.0754401683807,1.1842957170493662e-14,0.0,2.3249387741088867,-0.023249397054314613,0.048046838492155075,-0.023249387741088867,-9.313225746154785e-09,0.0,-0.04948186129331589,0.30605241656303406,0.7828659191455749,0.26267296075820923,0.5902189612388611,0.21319110691547394,0.6567980051040649,2.1861331462860107,0.9971029758453369,,,,,,,
4633612000.0,81.15,0.5699999928474426,12041169408.0,1824.092364756271,155.0,0.006521093659102917,638976.0,1297.3209404945374,1.3041651092393636e-14,0.0,2.2692434787750244,-0.02269243821501732,0.01816924661397934,-0.02269243448972702,-2.7939677238464355e-09,0.0,0.008061809465289116,0.19047927856445312,0.8547459286779019,0.2923126816749573,0.42463117837905884,0.30037444829940796,0.4997854232788086,2.245500326156616,0.9968869686126709,,,,,,,
4633612000.0,80.12,0.9599999785423279,12041169408.0,1826.2227583529598,156.0,0.009330966509878635,643072.0,1299.5638213157654,1.313706088357236e-14,0.0,2.2375197410583496,-0.0223751962184906,0.025066031143069267,-0.0223751962184906,0.0,0.0,0.024550335481762886,0.22257907688617706,0.8389142042237712,0.3114165961742401,0.49609488248825073,0.33596694469451904,0.5545691251754761,2.2428808212280273,0.9970760345458984,,,,,,,
4633612000.0,84.68,1.149999976158142,12041169408.0,1788.1533402084433,157.0,0.007166803348809481,647168.0,1301.8544526100159,1.2989609388114332e-14,0.0,2.2415435314178467,-0.022415440529584885,0.02499655820429325,-0.022415434941649437,-5.587935447692871e-09,0.0,0.009050996042788029,0.2234354317188263,0.7879438814686046,0.26993343234062195,0.4270598590373993,0.2789844274520874,0.4852064549922943,2.2906312942504883,0.9970390796661377,,,,,,,
4633612000.0,85.52,0.9200000166893005,12041169408.0,1871.972370436297,158.0,0.006556598469614983,651264.0,1304.0425190925598,1.3763296058399987e-14,0.0,2.109440803527832,-0.021094415336847305,0.0286056287586689,-0.02109440788626671,-7.450580596923828e-09,0.0,0.029494065791368484,0.23739232122898102,0.7620495940627293,0.2662186622619629,0.4569324851036072,0.29571273922920227,0.4866575300693512,2.1880664825439453,0.9969520568847656,,,,,,,
4633612000.0,80.86,0.7799999713897705,12041169408.0,1862.607393089804,159.0,0.006566639058291912,655360.0,1306.2415869235992,1.330012489031418e-14,0.0,2.177100658416748,-0.021771017462015152,0.019969569519162178,-0.021771006286144257,-1.1175870895385742e-08,0.0,0.02471543848514557,0.19833780825138092,0.8313278756555083,0.25279927253723145,0.41464677453041077,0.2775146961212158,0.48292964696884155,2.1990678310394287,0.9970626831054688,,,,,,,
,,,,,,,,,,,,,,,,,,,,,,,,,,0.009286963380873203,0.0646766871213913,0.05524391680955887,0.009286963380873203,0.0646766871213913,0.05524391680955887,
,,,,,,,,,,,,,,,,,,,,,,,,,,0.00531612616032362,0.04968913644552231,0.04759827256202698,0.00531612616032362,0.04968913644552231,0.04759827256202698,
,,,,,,,,,,,,,,,,,,,,,,,,,,0.005089839454740286,0.0472872257232666,0.04768906533718109,0.005089839454740286,0.0472872257232666,0.04768906533718109,
,,,,,,,,,,,,,,,,,,,,,,,,,,0.004077000077813864,0.04392044618725777,0.04405900090932846,0.004077000077813864,0.04392044618725777,0.04405900090932846,
,,,,,,,,,,,,,,,,,,,,,,,,,,0.00404326431453228,0.04216308519244194,0.04255981370806694,0.00404326431453228,0.04216308519244194,0.04255981370806694,
,,,,,,,,,,,,,,,,,,,,,,,,,,0.0037666040007025003,0.042411383241415024,0.04191166162490845,0.0037666040007025003,0.042411383241415024,0.04191166162490845,
,,,,,,,,,,,,,,,,,,,,,,,,,,,,,,,,-0.28
4633612000.0,79.57,0.9100000262260437,11990521856.0,17.049831906283128,160.0,0.007049031555652618,659456.0,1546.4785594940186,1.432187701766452e-14,0.0,2.1293554306030273,-0.021293556317687035,0.018047906458377838,-0.021293554455041885,-1.3969838619232178e-09,0.0,0.02807941474020481,0.18792547285556793,0.818734447073689,0.2648738920688629,0.4672800600528717,0.2929533123970032,0.4413955807685852,240.2369725704193,0.9965155124664307,,,,,,,
4633612000.0,84.93,1.0700000524520874,12041169408.0,1871.2381410469015,161.0,0.008631636388599873,663552.0,1548.6674845218658,1.227316859253591e-14,0.0,2.175076484680176,-0.021750755608081818,0.01534051913768053,-0.021750764921307564,9.313225746154785e-09,0.0,0.018806539475917816,0.17416875064373016,0.8762317323852072,0.3367001414299011,0.46809154748916626,0.35550665855407715,0.49506884813308716,2.18892502784729,0.996591329574585,,,,,,,
4633612000.0,83.79,0.949999988079071,12041169408.0,1876.162009898086,162.0,0.00754395080730319,667648.0,1550.8506648540497,1.222459633520856e-14,0.0,2.1692380905151367,-0.02169238030910492,0.01838071271777153,-0.02169238030910492,0.0,0.0,0.01125243678689003,0.19142557680606842,0.9288393393874917,0.3179151117801666,0.6801160573959351,0.32916754484176636,0.7175959944725037,2.183180332183838,0.997624397277832,,,,,,,
4633612000.0,85.11,0.8199999928474426,12041169408.0,1832.527002938999,163.0,0.004091943614184856,671744.0,1553.0858297348022,1.309889696710087e-14,0.0,2.1298584938049316,-0.021298592910170555,0.04840470105409622,-0.02129858359694481,-9.313225746154785e-09,0.0,-0.029622521251440048,0.309766560792923,0.8580870958955247,0.3570288121700287,0.7263420820236206,0.32740628719329834,0.822287380695343,2.2351648807525635,0.9975051879882812,,,,,,,
4633612000.0,89.07,0.8100000023841858,12041169408.0,1826.6116790697522,164.0,0.007404581177979708,675840.0,1555.3282330036163,1.2866444021319978e-14,0.0,2.126377820968628,-0.021263770759105682,0.03181394189596176,-0.02126377820968628,7.450580596923828e-09,0.0,0.004383351653814316,0.252238392829895,0.8542486114620509,0.41319841146469116,0.5930619835853577,0.4175817370414734,0.660700798034668,2.242403268814087,0.9981598854064941,,,,,,,
4633612000.0,93.03,1.1699999570846558,12041169408.0,1829.722197915677,165.0,0.007887165993452072,679936.0,1557.5668241977692,1.2961853812498703e-14,0.0,2.081347942352295,-0.020813485607504845,0.05176813527941704,-0.020813478156924248,-7.450580596923828e-09,0.0,-0.0029233675450086594,0.3217965364456177,0.7542351812529131,0.5272603034973145,0.5475658178329468,0.5243369340896606,0.6491147875785828,2.238591194152832,0.9965505599975586,,,,,,,
4633612000.0,88.52,1.1399999856948853,12041169408.0,1838.7105878535224,166.0,0.007899911142885685,684032.0,1559.7944722175598,1.2156942119645464e-14,0.0,2.1012253761291504,-0.02101225219666958,0.038722552359104156,-0.021012254059314728,1.862645149230957e-09,0.0,0.0008966554887592793,0.27832216024398804,0.7240078517488155,0.32037729024887085,0.5056614875793457,0.32127392292022705,0.5297846794128418,2.2276480197906494,0.9966740608215332,,,,,,,
4633612000.0,82.76,0.8600000143051147,12041169408.0,1815.0342591909787,167.0,0.0058573950082063675,688128.0,1562.05117893219,1.2654807757250808e-14,0.0,2.0140457153320312,-0.020140454173088074,0.04355762153863907,-0.020140456035733223,1.862645149230957e-09,0.0,-0.03164390102028847,0.293487548828125,0.7950447506914556,0.3469441533088684,0.5812994241714478,0.31530025601387024,0.6482762694358826,2.256706714630127,0.9970085620880127,,,,,,,
4633612000.0,80.47,0.5299999713897705,12041169408.0,1868.3841849101054,168.0,0.00253713084384799,692224.0,1564.2434475421906,1.2687767503294367e-14,0.0,2.0686402320861816,-0.020686399191617966,0.05173555016517639,-0.020686401054263115,9.313225746154785e-10,0.0,-0.0275090504437685,0.3205299377441406,0.8344864679946045,0.2262178659439087,0.7761809825897217,0.19870881736278534,0.7878650426864624,2.1922686100006104,0.9971451759338379,,,,,,,
4633612000.0,84.21,0.6700000166893005,12041169408.0,1858.740809711746,169.0,0.008893847465515137,696320.0,1566.4470899105072,1.3058998327153404e-14,0.0,2.0914840698242188,-0.020914847031235695,0.02691144123673439,-0.020914839580655098,-7.450580596923828e-09,0.0,0.03526654839515686,0.2293294370174408,0.8769310232025967,0.3912408947944641,0.6187037825584412,0.42650747299194336,0.6537106037139893,2.2036423683166504,0.9974620342254639,,,,,,,
4633612000.0,84.47,1.0499999523162842,12041169408.0,1796.2951479691098,170.0,0.007796162739396095,700416.0,1568.7273387908936,1.2587153541687712e-14,0.0,2.125248908996582,-0.02125248685479164,0.023252949118614197,-0.02125248871743679,9.313225746154785e-10,0.0,0.021614855155348778,0.21459250152111053,0.7953388573159954,0.3503762185573578,0.468537300825119,0.3719910979270935,0.4743477404117584,2.2802488803863525,0.9964478015899658,,,,,,,
4633612000.0,84.28,0.949999988079071,12041169408.0,1805.6028961334264,171.0,0.0063754296861588955,704512.0,1570.995833158493,1.1919285003436642e-14,0.0,2.1625142097473145,-0.02162514254450798,0.027032867074012756,-0.02162514254450798,-9.313225746154785e-10,0.0,0.01559498906135559,0.232025146484375,0.879806959051826,0.26493000984191895,0.6529794931411743,0.28052496910095215,0.6692608594894409,2.2684943675994873,0.9970605373382568,,,,,,,
4633612000.0,78.97,0.9300000071525574,12041169408.0,1875.272799037338,172.0,0.008463071659207344,708608.0,1573.1800487041473,1.213786016140972e-14,0.0,2.0733938217163086,-0.020733926445245743,0.02132255584001541,-0.020733937621116638,1.1175870895385742e-08,0.0,-0.004537709057331085,0.20648227632045746,0.8301254842521135,0.3767702877521515,0.47569289803504944,0.3722326159477234,0.5009779930114746,2.184215545654297,0.9967396259307861,,,,,,,
4633612000.0,76.26,0.9399999976158142,12041169408.0,1869.45217713401,173.0,0.0062383427284657955,712704.0,1575.371064901352,1.2982670494210424e-14,0.0,2.0827579498291016,-0.020827582105994225,0.03248468413949013,-0.020827578380703926,-3.725290298461914e-09,0.0,0.017809048295021057,0.25429901480674744,0.8797317672437974,0.2392304688692093,0.6540565490722656,0.25703951716423035,0.7332788705825806,2.19101619720459,0.9969005584716797,,,,,,,
4633612000.0,79.5,0.9399999976158142,12041169408.0,1828.0791460017488,174.0,0.009453099220991135,716800.0,1577.6116681098938,1.2918485725599282e-14,0.0,2.137192964553833,-0.021371928974986076,0.021915610879659653,-0.021371928974986076,0.0,0.0,0.02101358212530613,0.2083272635936737,0.8843038056563348,0.3283073902130127,0.5939949154853821,0.34932100772857666,0.6124725341796875,2.24060320854187,0.9967281818389893,,,,,,,
4633612000.0,78.37,0.9900000095367432,12041169408.0,1798.5862443327874,175.0,0.007862541824579239,720896.0,1579.889012336731,1.2575010477355875e-14,0.0,2.159813165664673,-0.02159811556339264,0.029830340296030045,-0.021598130464553833,1.4901161193847656e-08,0.0,0.003520892933011055,0.2442598193883896,0.8527657795796525,0.3370564579963684,0.6041780114173889,0.3405773639678955,0.6365721821784973,2.277344226837158,0.9967644214630127,,,,,,,
4633612000.0,76.91,0.8299999833106995,12041169408.0,1840.912171854639,176.0,0.00755070336163044,724992.0,1582.1139962673187,1.2401538129758194e-14,0.0,2.1657443046569824,-0.021657442674040794,0.03218993544578552,-0.021657442674040794,0.0,0.0,0.006838302593678236,0.25367066264152527,0.8640971987057497,0.30582085251808167,0.645383358001709,0.3126591742038727,0.6881071925163269,2.2249839305877686,0.9983711242675781,,,,,,,
4633612000.0,84.44,1.1100000143051147,12041169408.0,1817.1348857438654,177.0,0.008367646485567093,729088.0,1584.3680942058563,1.2346026978526936e-14,0.0,2.205674648284912,-0.022056737914681435,0.022346317768096924,-0.02205674536526203,7.450580596923828e-09,0.0,-0.008436552248895168,0.21126370131969452,0.8548030015500181,0.45708706974983215,0.5217550992965698,0.4486505389213562,0.5544291734695435,2.2540979385375977,0.9970006942749023,,,,,,,
4633612000.0,91.79,1.2599999904632568,12041169408.0,1853.9802641326874,178.0,0.007573938928544521,733184.0,1586.5773949623108,1.3235940121703038e-14,0.0,2.1356379985809326,-0.021356375887989998,0.02286204695701599,-0.021356379613280296,3.725290298461914e-09,0.0,0.002446766011416912,0.21384403109550476,0.9019644854708073,0.35592809319496155,0.6112292408943176,0.35837486386299133,0.6829760074615479,2.2093007564544678,0.99666428565979,,,,,,,
4633612000.0,85.53,0.6700000166893005,12041169408.0,1842.4778001720017,179.0,0.0038719787262380123,737280.0,1588.8004882335663,1.2297454721199585e-14,0.0,2.1602396965026855,-0.02160239964723587,0.0406985804438591,-0.021602395921945572,-2.7939677238464355e-09,0.0,-0.04854084178805351,0.28117653727531433,0.8783661351011794,0.2294856160879135,0.7132033109664917,0.1809447854757309,0.8062167763710022,2.223093271255493,0.9967019557952881,,,,,,,
4633612000.0,81.58,0.6299999952316284,12041169408.0,1873.3943464061197,180.0,0.006946067325770855,741376.0,1590.9868938922882,1.3072876114961218e-14,0.0,2.1327648162841797,-0.02132764644920826,0.026045741513371468,-0.02132764831185341,1.862645149230957e-09,0.0,-0.001605128520168364,0.22825782001018524,0.9310367405434493,0.2602466642856598,0.7935428023338318,0.2586415112018585,0.8691940903663635,2.186405658721924,0.9966695308685303,,,,,,,
4633612000.0,85.68,0.800000011920929,12041169408.0,1830.182407509302,181.0,0.007116373162716627,745472.0,1593.2249221801758,1.2699910567626205e-14,0.0,2.149709463119507,-0.02149709314107895,0.02517971396446228,-0.021497095003724098,9.313225746154785e-10,0.0,0.011417948640882969,0.224145770072937,0.9017146359695534,0.3081173896789551,0.6470606327056885,0.31953534483909607,0.7149673104286194,2.2380282878875732,0.9970128536224365,,,,,,,
4633612000.0,87.08,1.0800000429153442,12041169408.0,1819.8092494892737,182.0,0.009391829371452332,749568.0,1595.4757075309753,1.213786016140972e-14,0.0,2.159438133239746,-0.021594388410449028,0.02829153463244438,-0.02159438095986843,-7.450580596923828e-09,0.0,0.01959221623837948,0.23709268867969513,0.7722645144881438,0.4179120659828186,0.4574427604675293,0.43750429153442383,0.4968242645263672,2.2507853507995605,0.9969630241394043,,,,,,,
4633612000.0,82.66,1.1399999856948853,12041169408.0,1856.3575851694268,183.0,0.007948428392410278,753664.0,1597.6821789741516,1.3851766955674805e-14,0.0,2.1043894290924072,-0.021043892949819565,0.023909198120236397,-0.021043892949819565,0.0,0.0,-0.010555814020335674,0.21844592690467834,0.9242728233415872,0.26096099615097046,0.7739735841751099,0.2504051923751831,0.7938126921653748,2.2064714431762695,0.9972982406616211,,,,,,,
4633612000.0,84.81,1.059999942779541,12041169408.0,1886.3136236580226,184.0,0.010067370720207691,757760.0,1599.8536100387573,1.2786646741425045e-14,0.0,2.197418212890625,-0.021974191069602966,0.021804451942443848,-0.02197418175637722,-9.313225746154785e-09,0.0,0.03868795186281204,0.2052375227212906,0.8695038004534924,0.4481433033943176,0.5382416248321533,0.4868312478065491,0.5681431889533997,2.171431064605713,0.9970977306365967,,,,,,,
4633612000.0,88.3,1.409999966621399,12041169408.0,1864.0503631616575,185.0,0.011865152046084404,761856.0,1602.050975561142,1.3791051634015616e-14,0.0,2.185281753540039,-0.021852798759937286,0.02043648064136505,-0.02185281738638878,1.909211277961731e-08,0.0,0.04125156253576279,0.19794149696826935,0.9242917490498824,0.42353612184524536,0.6773483157157898,0.46478772163391113,0.7193913459777832,2.1973655223846436,0.9967424869537354,,,,,,,
4633612000.0,86.15,1.25,12041169408.0,1826.1373461324072,186.0,0.007647307589650154,765952.0,1604.2939612865448,1.5263831865119926e-14,0.0,2.061744213104248,-0.020617438480257988,0.04275321215391159,-0.020617442205548286,4.190951585769653e-09,0.0,-0.036097802221775055,0.29021361470222473,0.8659464839793819,0.4050629734992981,0.7139253616333008,0.36896514892578125,0.7926448583602905,2.242985725402832,0.9967834949493408,,,,,,,
4633612000.0,85.76,1.1799999475479126,12041169408.0,1800.6515918069938,187.0,0.009283955208957195,770048.0,1606.5686933994293,1.5184034585224992e-14,0.0,2.1308794021606445,-0.021308789029717445,0.029421543702483177,-0.021308792755007744,3.725290298461914e-09,0.0,0.007526112720370293,0.2424887716770172,0.879417520112252,0.5568134784698486,0.634989857673645,0.5643396377563477,0.6983121037483215,2.2747321128845215,0.996999979019165,,,,,,,
4633612000.0,86.57,1.3300000429153442,12041169408.0,1828.7102006614914,188.0,0.011252196505665779,774144.0,1608.8085234165192,1.4670556436335858e-14,0.0,2.0819358825683594,-0.020819345489144325,0.0191104244440794,-0.02081935852766037,1.30385160446167e-08,0.0,0.008891278877854347,0.19532307982444763,0.9188194442480387,0.5067528486251831,0.6808682680130005,0.5156440734863281,0.685531735420227,2.2398300170898438,0.9969964027404785,,,,,,,
4633612000.0,93.07,1.4800000190734863,12041169408.0,1826.8601080258893,189.0,0.011588819324970245,778240.0,1611.0506217479706,1.4833620443077677e-14,0.0,2.1298227310180664,-0.021298233419656754,0.015949204564094543,-0.021298225969076157,-7.450580596923828e-09,0.0,0.00680804206058383,0.17849324643611908,0.9124591333877319,0.5294876098632812,0.5681480169296265,0.5362957119941711,0.6032763719558716,2.242098331451416,0.996553897857666,,,,,,,
4633612000.0,88.8,1.3899999856948853,12041169408.0,1808.2660474308218,190.0,0.008662207052111626,782336.0,1613.3157751560211,1.460984111467667e-14,0.0,1.9748632907867432,-0.01974862813949585,0.02847323566675186,-0.019748631864786148,3.725290298461914e-09,0.0,0.011553958058357239,0.23838382959365845,0.931897144541236,0.5699781775474548,0.8836901187896729,0.5815321207046509,0.913469672203064,2.265153408050537,0.9968934059143066,,,,,,,
4633612000.0,82.85,1.3200000524520874,12041169408.0,1871.18902268077,191.0,0.012110056355595589,786432.0,1615.504757642746,1.5990681001554208e-14,0.0,2.070464849472046,-0.020704638212919235,0.02931334264576435,-0.02070464752614498,8.381903171539307e-09,0.0,-0.010605910792946815,0.2419266253709793,0.8606347118239746,0.6518430709838867,0.5855640769004822,0.6412371397018433,0.6480467915534973,2.1889824867248535,0.9967596530914307,,,,,,,
,,,,,,,,,,,,,,,,,,,,,,,,,,0.0032089808955788612,0.037422843277454376,0.031093792989850044,0.0032089808955788612,0.037422843277454376,0.031093792989850044,
,,,,,,,,,,,,,,,,,,,,,,,,,,0.002296315273270011,0.029367486014962196,0.02654292620718479,0.002296315273270011,0.029367486014962196,0.02654292620718479,
,,,,,,,,,,,,,,,,,,,,,,,,,,0.001822013407945633,0.026304569095373154,0.02491625025868416,0.001822013407945633,0.026304569095373154,0.02491625025868416,
,,,,,,,,,,,,,,,,,,,,,,,,,,0.0019098389893770218,0.02593717910349369,0.024537447839975357,0.0019098389893770218,0.02593717910349369,0.024537447839975357,
,,,,,,,,,,,,,,,,,,,,,,,,,,0.002071840688586235,0.02534239925444126,0.02462683618068695,0.002071840688586235,0.02534239925444126,0.02462683618068695,
,,,,,,,,,,,,,,,,,,,,,,,,,,0.0018806966254487634,0.024420708417892456,0.023325113579630852,0.0018806966254487634,0.024420708417892456,0.023325113579630852,
,,,,,,,,,,,,,,,,,,,,,,,,,,,,,,,,0.18
4633612000.0,85.65,1.2799999713897705,11990521856.0,17.067087327940953,192.0,0.009176020510494709,790528.0,1855.4988422393799,1.441902153231922e-14,0.0,2.017650842666626,-0.02017652615904808,0.013014744967222214,-0.020176507532596588,-1.862645149230957e-08,0.0,0.04452202469110489,0.15509077906608582,0.9173293983026516,0.29187527298927307,0.5058624744415283,0.33639729022979736,0.5393993854522705,239.9940845966339,0.9969677925109863,,,,,,,
4633612000.0,86.42,1.190000057220459,12041169408.0,1817.7459042741054,193.0,0.00836726650595665,794624.0,1857.752182483673,1.3660947373317356e-14,0.0,2.090172290802002,-0.02090173400938511,0.02611619234085083,-0.020901722833514214,-1.1175870895385742e-08,0.0,0.010277224704623222,0.2283407300710678,0.8974878209250478,0.3709257245063782,0.6463066935539246,0.38120296597480774,0.7131742835044861,2.253340244293213,0.9971127510070801,,,,,,,
4633612000.0,87.86,1.2100000381469727,12041169408.0,1826.912560619292,194.0,0.00952112302184105,798720.0,1859.9942164421082,1.3546455623902887e-14,0.0,2.141848087310791,-0.02141847275197506,0.03887466341257095,-0.021418480202555656,7.450580596923828e-09,0.0,0.0081944540143013,0.2787492573261261,0.8899372568640183,0.4441065788269043,0.7485859990119934,0.4523010849952698,0.8402209877967834,2.2420339584350586,0.9969048500061035,,,,,,,
4633612000.0,86.45,1.3200000524520874,12041169408.0,1868.0274430326124,195.0,0.010021262802183628,802816.0,1862.1869037151337,1.2734605037145741e-14,0.0,2.1606738567352295,-0.02160673774778843,0.0439702644944191,-0.02160673774778843,0.0,0.0,-0.010628456249833107,0.29639333486557007,0.7991206591234119,0.4438285231590271,0.5516135692596436,0.43320006132125854,0.6613035202026367,2.1926872730255127,0.9972255229949951,,,,,,,
4633612000.0,86.45,1.0399999618530273,12041169408.0,1763.8395140225796,196.0,0.005426127463579178,806912.0,1864.5091104507446,1.3353901318069461e-14,0.0,2.1772730350494385,-0.021772731095552444,0.044704314321279526,-0.021772729232907295,-1.862645149230957e-09,0.0,-0.02118404395878315,0.29829782247543335,0.8584329718073174,0.35019129514694214,0.6904370784759521,0.32900726795196533,0.7928098440170288,2.322206735610962,0.9969048500061035,,,,,,,
4633612000.0,91.25,1.159999966621399,12041169408.0,1891.632126940713,197.0,0.010864172130823135,811008.0,1866.6744363307953,1.2443171493181637e-14,0.0,2.1834607124328613,-0.021834611892700195,0.019312545657157898,-0.021834606304764748,-5.587935447692871e-09,0.0,0.01649096980690956,0.1958635002374649,0.8923110984831287,0.5722720623016357,0.5751417875289917,0.5887629985809326,0.5968538522720337,2.165325880050659,0.9968619346618652,,,,,,,
4633612000.0,92.39,1.2100000381469727,12041169408.0,1860.1270378994566,198.0,0.009393289685249329,815104.0,1868.876436471939,1.2358170042858774e-14,0.0,2.1835765838623047,-0.021835749968886375,0.04401518404483795,-0.02183576487004757,1.4901161193847656e-08,0.0,-0.019119415432214737,0.2961185872554779,0.8376924287524706,0.622138500213623,0.6208851337432861,0.603019118309021,0.7350152134895325,2.202000141143799,0.9968559741973877,,,,,,,
4633612000.0,85.84,1.159999966621399,12041169408.0,1852.2366611530401,199.0,0.010062036104500294,819200.0,1871.087816953659,1.321338871651534e-14,0.0,2.1898317337036133,-0.021898306906223297,0.028755947947502136,-0.021898316219449043,1.0244548320770264e-08,0.0,-0.01363188587129116,0.2394578456878662,0.93076770458764,0.4831762909889221,0.8496328592300415,0.46954435110092163,0.9100698232650757,2.2113804817199707,0.9973382949829102,,,,,,,
4633612000.0,76.26,1.190000057220459,12041169408.0,1820.6589758959024,200.0,0.010076658800244331,823296.0,1873.337551832199,1.3454515279676116e-14,0.0,2.168408155441284,-0.02168409526348114,0.019818518310785294,-0.021684080362319946,-1.4901161193847656e-08,0.0,-0.006311886943876743,0.19901475310325623,0.9121131874351253,0.5572131872177124,0.643597424030304,0.5509012937545776,0.6713104248046875,2.249734878540039,0.9973635673522949,,,,,,,
4633612000.0,80.0,1.1100000143051147,12041169408.0,1860.0841401067619,201.0,0.008268317207694054,827392.0,1875.5396027565002,1.4224732503009818e-14,0.0,2.122627019882202,-0.02122625708580017,0.02900644764304161,-0.021226270124316216,1.30385160446167e-08,0.0,-0.032283905893564224,0.23871438205242157,0.9188673455771762,0.4568207859992981,0.7907834053039551,0.42453694343566895,0.8380709290504456,2.2020509243011475,0.9981334209442139,,,,,,,
4633612000.0,82.11,1.059999942779541,12041169408.0,1821.8859785505758,202.0,0.011423276737332344,831488.0,1877.78782248497,1.464800503114816e-14,0.0,2.135955572128296,-0.021359555423259735,0.03162003681063652,-0.021359555423259735,0.0,0.0,-0.005869187414646149,0.2514379918575287,0.9132221436544118,0.736263632774353,0.7833666205406189,0.7303944230079651,0.8535451292991638,2.2482197284698486,0.9980700016021729,,,,,,,
4633612000.0,89.57,1.4900000095367432,12041169408.0,1865.4293336761639,203.0,0.010764486156404018,835584.0,1879.9835636615753,1.4108506030119372e-14,0.0,2.0773730278015137,-0.020773714408278465,0.03517308086156845,-0.02077372930943966,1.4901161193847656e-08,0.0,-0.03155691921710968,0.2633766531944275,0.8841738625712471,0.5871869921684265,0.7200804948806763,0.555630087852478,0.7738806009292603,2.1957411766052246,0.9980483055114746,,,,,,,
4633612000.0,89.53,1.5,12041169408.0,1873.9775600931803,204.0,0.011107395403087139,839680.0,1882.1692888736725,1.4018300409368578e-14,0.0,2.072977066040039,-0.020729782059788704,0.023262588307261467,-0.02072977088391781,-1.1175870895385742e-08,0.0,-0.00734423752874136,0.2155981957912445,0.9236689277287788,0.6786010265350342,0.7264518737792969,0.6712567806243896,0.7803589701652527,2.185725212097168,0.9970319271087646,,,,,,,
4633612000.0,89.64,1.409999966621399,12041169408.0,1823.166486930938,205.0,0.009457156993448734,843776.0,1884.415929555893,1.4391265956703592e-14,0.0,2.097957134246826,-0.02097957395017147,0.020206522196531296,-0.020979570224881172,-3.725290298461914e-09,0.0,-0.038134943693876266,0.19740386307239532,0.9514545305244974,0.5153136253356934,0.8858067989349365,0.477178692817688,0.8959448337554932,2.246640682220459,0.9968435764312744,,,,,,,
4633612000.0,86.62,1.1399999856948853,12041169408.0,1818.9520346742754,206.0,0.006480358075350523,847872.0,1886.667775630951,1.4694842564999533e-14,0.0,2.0656721591949463,-0.020656729117035866,0.029833296313881874,-0.02065672166645527,-7.450580596923828e-09,0.0,-0.05700089409947395,0.23755265772342682,0.9213340564501039,0.44049131870269775,0.7992046475410461,0.3834903836250305,0.8469669818878174,2.2518460750579834,0.9967472553253174,,,,,,,
4633612000.0,84.89,1.0399999618530273,12041169408.0,1844.95308424702,207.0,0.01097983866930008,851968.0,1888.8878862857819,1.4464124342694618e-14,0.0,2.0813021659851074,-0.02081301063299179,0.015140882693231106,-0.020813021808862686,1.0244548320770264e-08,0.0,0.013422098010778427,0.1735193431377411,0.9404855702729545,0.4952310025691986,0.7041457295417786,0.5086531043052673,0.7112736701965332,2.2201106548309326,0.9968435764312744,,,,,,,
4633612000.0,89.1,1.3600000143051147,12041169408.0,1787.833273599683,208.0,0.01248555164784193,856064.0,1891.1789276599884,1.413105743530707e-14,0.0,2.0638318061828613,-0.020638326182961464,0.022135045379400253,-0.020638316869735718,-9.778887033462524e-09,0.0,0.0003643075469881296,0.21042995154857635,0.9380127364708711,0.6282156705856323,0.8100293874740601,0.6285799741744995,0.8451938629150391,2.291041374206543,0.9967629909515381,,,,,,,
4633612000.0,84.94,1.4199999570846558,12041169408.0,1801.1682923609858,209.0,0.010166559368371964,860160.0,1893.453007221222,1.5987211554602254e-14,0.0,2.1077795028686523,-0.02107778750360012,0.023590296506881714,-0.021077794954180717,7.450580596923828e-09,0.0,-0.014824162237346172,0.21673093736171722,0.9455213795238123,0.5482123494148254,0.9136334657669067,0.5333881974220276,0.9285555481910706,2.2740795612335205,0.997117280960083,,,,,,,
4633612000.0,83.85,1.399999976158142,12041169408.0,1840.1612996136382,210.0,0.011511115357279778,864256.0,1895.678899049759,1.4150139393542815e-14,0.0,2.1270735263824463,-0.02127072773873806,0.01797017827630043,-0.021270735189318657,7.450580596923828e-09,0.0,0.031142212450504303,0.18702688813209534,0.9393592497028275,0.4895156919956207,0.7396388649940491,0.5206578969955444,0.7594894766807556,2.2258918285369873,0.9970834255218506,,,,,,,
4633612000.0,87.89,1.3700000047683716,12041169408.0,1822.7090249928413,211.0,0.010187797248363495,868352.0,1897.926103591919,1.428371310119303e-14,0.0,2.171370506286621,-0.021713711321353912,0.01737697795033455,-0.021713703870773315,-7.450580596923828e-09,0.0,0.01332970429211855,0.18596968054771423,0.9226344541725979,0.4195171892642975,0.6547043323516846,0.43284690380096436,0.6686030030250549,2.247204542160034,0.9974615573883057,,,,,,,
4633612000.0,86.13,1.2899999618530273,12041169408.0,1872.2275791684217,212.0,0.009530318900942802,872448.0,1900.1138718128204,1.4262896419481308e-14,0.0,2.1132593154907227,-0.02113259956240654,0.02439996972680092,-0.021132592111825943,-7.450580596923828e-09,0.0,0.020357539877295494,0.2199939340353012,0.8950306522037015,0.3588598370552063,0.6638429760932922,0.37921738624572754,0.6790151000022888,2.1877682209014893,0.9969074726104736,,,,,,,
4633612000.0,85.96,1.350000023841858,12041169408.0,1868.9250426984088,213.0,0.012384360656142235,876544.0,1902.305505990982,1.3763296058399987e-14,0.0,2.1073012351989746,-0.021073011681437492,0.0234732273966074,-0.021073011681437492,0.0,0.0,0.04374364763498306,0.21223558485507965,0.9269089740697725,0.46010637283325195,0.7688713073730469,0.503849983215332,0.7850298881530762,2.191634178161621,0.9968736171722412,,,,,,,
4633612000.0,87.68,1.4700000286102295,12041169408.0,1830.372718502407,214.0,0.012561280280351639,880640.0,1904.5433015823364,1.4259426972529354e-14,0.0,2.0672450065612793,-0.020672442391514778,0.01738850772380829,-0.020672449842095375,7.450580596923828e-09,0.0,0.04228471964597702,0.18165096640586853,0.9536285722235945,0.4651826322078705,0.8208200931549072,0.5074673891067505,0.8435532450675964,2.23779559135437,0.9967150688171387,,,,,,,
4633612000.0,92.22,1.7300000190734863,12041169408.0,1807.9258033386898,215.0,0.012901999056339264,884736.0,1906.8088812828064,1.4366979828039916e-14,0.0,2.099405288696289,-0.02099403738975525,0.026017464697360992,-0.020994052290916443,1.4901161193847656e-08,0.0,0.03608691692352295,0.22526663541793823,0.9039849479973967,0.48078587651252747,0.6805022954940796,0.516872763633728,0.726987898349762,2.2655797004699707,0.9968662261962891,,,,,,,
4633612000.0,84.66,1.6200000047683716,12041169408.0,1869.2479586090078,216.0,0.013249729759991169,888832.0,1909.0001368522644,1.4949846915968124e-14,0.0,2.0642199516296387,-0.020642219111323357,0.018244149163365364,-0.020642198622226715,-2.0489096641540527e-08,0.0,0.03134532272815704,0.18845275044441223,0.9514672753608721,0.5420732498168945,0.8244982957839966,0.5734184980392456,0.8554312586784363,2.191255569458008,0.9981074333190918,,,,,,,
4633612000.0,80.92,1.4199999570846558,12041169408.0,1898.0386619498904,217.0,0.011917178519070148,892928.0,1911.1581540107727,1.4394735403655545e-14,0.0,2.0778520107269287,-0.020778516307473183,0.013948941603302956,-0.02077852003276348,3.725290298461914e-09,0.0,-0.0023283956106752157,0.16703075170516968,0.9651355172518049,0.516019344329834,0.9143213033676147,0.5136909484863281,0.8945504426956177,2.158017158508301,0.996889591217041,,,,,,,
4633612000.0,86.6,1.399999976158142,12041169408.0,1701.9561930179639,218.0,0.009411926381289959,897024.0,1913.564796447754,1.4384327062799684e-14,0.0,2.1039857864379883,-0.02103985659778118,0.021214956417679787,-0.02103985659778118,0.0,0.0,0.0004885084927082062,0.20600979030132294,0.8849860036266719,0.4858919382095337,0.5913779139518738,0.4863804280757904,0.6074528098106384,2.406642436981201,0.9967737197875977,,,,,,,
4633612000.0,87.53,1.3300000429153442,12041169408.0,1790.1429253492213,219.0,0.011271616443991661,901120.0,1915.8528819084167,1.572873775668171e-14,0.0,2.049884796142578,-0.0204988494515419,0.07546092569828033,-0.02049884758889675,-1.862645149230957e-09,0.0,0.057610608637332916,0.3842380940914154,0.838299132679703,0.4853936433792114,0.8764896988868713,0.5430042743682861,0.9555298089981079,2.288085460662842,0.9966814517974854,,,,,,,
4633612000.0,92.85,1.4199999570846558,12041169408.0,1839.220419827204,220.0,0.011955168098211288,905216.0,1918.0799124240875,1.638619795407692e-14,0.0,1.9991577863693237,-0.019991561770439148,0.02901775762438774,-0.019991576671600342,1.4901161193847656e-08,0.0,0.03151722997426987,0.23886419832706451,0.936664867196916,0.7106155157089233,0.9433518052101135,0.7421326637268066,0.9491365551948547,2.2270305156707764,0.9967591762542725,,,,,,,
4633612000.0,99.62,1.690000057220459,12041169408.0,1897.24047518395,221.0,0.009604915976524353,909312.0,1920.238837480545,1.7468665403086447e-14,0.0,1.9761638641357422,-0.019761646166443825,0.03281273692846298,-0.019761638715863228,-7.450580596923828e-09,0.0,-0.013758597895503044,0.2558361887931824,0.9112658538405948,0.6351989507675171,0.8106667995452881,0.6214403510093689,0.8588486313819885,2.1589250564575195,0.9970195293426514,,,,,,,
4633612000.0,96.37,1.659999966621399,12041169408.0,1799.0876298484104,222.0,0.014163636602461338,913408.0,1922.5155470371246,1.7779180905286296e-14,0.0,2.057732105255127,-0.020577313378453255,0.026799235492944717,-0.02057732082903385,7.450580596923828e-09,0.0,0.014142320491373539,0.23110930621623993,0.9457074800939546,0.80279940366745,0.9619407653808594,0.8169416785240173,0.9918532371520996,2.27670955657959,0.9970743656158447,,,,,,,
4633612000.0,90.34,1.5800000429153442,12041169408.0,1819.9131566422197,223.0,0.010968840681016445,917504.0,1924.76620388031,1.766295443239585e-14,0.0,1.9900490045547485,-0.019900474697351456,0.024364203214645386,-0.01990048959851265,1.4901161193847656e-08,0.0,-0.045460350811481476,0.21603970229625702,0.9423375258901853,0.5786445140838623,0.8926708698272705,0.5331841707229614,0.8996776342391968,2.250656843185425,0.9967424869537354,,,,,,,
,,,,,,,,,,,,,,,,,,,,,,,,,,0.006481241434812546,0.044189147651195526,0.03572247549891472,0.006481241434812546,0.044189147651195526,0.03572247549891472,
,,,,,,,,,,,,,,,,,,,,,,,,,,0.004118721932172775,0.03297899663448334,0.030792349949479103,0.004118721932172775,0.03297899663448334,0.030792349949479103,
,,,,,,,,,,,,,,,,,,,,,,,,,,0.0031448681838810444,0.029351025819778442,0.028437208384275436,0.0031448681838810444,0.029351025819778442,0.028437208384275436,
,,,,,,,,,,,,,,,,,,,,,,,,,,0.002854586113244295,0.028598615899682045,0.028687044978141785,0.002854586113244295,0.028598615899682045,0.028687044978141785,
,,,,,,,,,,,,,,,,,,,,,,,,,,0.004769493360072374,0.03011128306388855,0.0290741715580225,0.004769493360072374,0.03011128306388855,0.0290741715580225,
,,,,,,,,,,,,,,,,,,,,,,,,,,0.0030412846244871616,0.02693197876214981,0.02715606987476349,0.0030412846244871616,0.02693197876214981,0.02715606987476349,
,,,,,,,,,,,,,,,,,,,,,,,,,,,,,,,,0.42
4633612000.0,84.22,1.350000023841858,11990521856.0,17.04684102345472,224.0,0.011990297585725784,921600.0,2165.04532623291,1.541822225448186e-14,0.0,2.0019164085388184,-0.020019160583615303,0.019980544224381447,-0.0200191643089056,3.725290298461914e-09,0.0,0.003083542687818408,0.19990332424640656,0.9107613674511333,0.5341596007347107,0.6250355243682861,0.537243127822876,0.6691809296607971,240.2791223526001,0.9989686012268066,,,,,,,
4633612000.0,84.42,1.399999976158142,12041169408.0,1815.8486302129284,225.0,0.009634800255298615,925696.0,2167.301020860672,1.654405779039081e-14,0.0,1.871745228767395,-0.018717454746365547,0.019094420596957207,-0.01871745102107525,-3.725290298461914e-09,0.0,0.02304493635892868,0.19407980144023895,0.9560103739170858,0.3740069568157196,0.881703794002533,0.3970519006252289,0.9253483414649963,2.255694627761841,0.996767520904541,,,,,,,
4633612000.0,85.52,1.3200000524520874,12041169408.0,1871.9544207226713,226.0,0.011336668394505978,929792.0,2169.489108324051,1.6580486983386322e-14,0.0,1.934956669807434,-0.01934957690536976,0.007582963444292545,-0.019349565729498863,-1.1175870895385742e-08,0.0,0.021684659644961357,0.12124063074588776,0.9812769919685207,0.549656331539154,0.8598244786262512,0.5713410377502441,0.8860543966293335,2.1880874633789062,0.9966878890991211,,,,,,,
4633612000.0,90.22,1.409999966621399,12041169408.0,1893.0591069783782,227.0,0.011517368257045746,933888.0,2171.652801990509,1.6400075741884734e-14,0.0,1.924346923828125,-0.019243469461798668,0.010303523391485214,-0.019243469461798668,-4.656612873077393e-10,0.0,0.014480691403150558,0.14283674955368042,0.9721810002593555,0.6739568710327148,0.8158583641052246,0.6884375810623169,0.8563852906227112,2.16369366645813,0.9969871044158936,,,,,,,
4633612000.0,95.4,1.6100000143051147,12041169408.0,1858.820650897299,228.0,0.011699628084897995,937984.0,2173.85634970665,1.7694179454963432e-14,0.0,1.949737787246704,-0.019497381523251534,0.021606173366308212,-0.019497377797961235,-3.725290298461914e-09,0.0,-0.0021348833106458187,0.20789022743701935,0.9145112425792473,0.7018693089485168,0.6760715842247009,0.6997344493865967,0.7110163569450378,2.203547716140747,0.9967889785766602,,,,,,,
4633612000.0,98.07,1.7999999523162842,12041169408.0,1887.6498288411576,229.0,0.015273666940629482,942080.0,2176.026243686676,1.6708856520608606e-14,0.0,1.9832695722579956,-0.01983269490301609,0.047198377549648285,-0.01983269490301609,-4.656612873077393e-10,0.0,0.03596130758523941,0.30516597628593445,0.8918058133218978,0.7195194959640503,0.8310928344726562,0.7554808855056763,0.9277569055557251,2.169893980026245,0.9964182376861572,,,,,,,
4633612000.0,101.28,1.8700000047683716,12041169408.0,1844.8708638550106,230.0,0.011715032160282135,946176.0,2178.2464532852173,1.6528445279107018e-14,0.0,1.9794366359710693,-0.019794361665844917,0.026880847290158272,-0.019794365391135216,3.725290298461914e-09,0.0,0.03433366119861603,0.22933760285377502,0.9125501715130683,0.7274683713912964,0.7486743927001953,0.761802077293396,0.7755249738693237,2.2202095985412598,0.9967262744903564,,,,,,,
4633612000.0,112.1,2.259999990463257,12041169408.0,1888.4482678301706,231.0,0.015404189936816692,950272.0,2180.415429830551,1.5328016633731067e-14,0.0,1.953075647354126,-0.019530756399035454,0.24333889782428741,-0.019530756399035454,0.0,0.0,0.059172339737415314,0.6951938271522522,0.7369708764684726,0.8340253829956055,0.9626266956329346,0.893197774887085,1.3555139303207397,2.1689765453338623,0.9966301918029785,,,,,,,
4633612000.0,106.48,2.0299999713897705,12041169408.0,1872.6665540296756,232.0,0.011037941090762615,954368.0,2182.602685213089,1.705927066275592e-14,0.0,1.9277243614196777,-0.019277237355709076,0.04040749371051788,-0.019277242943644524,5.587935447692871e-09,0.0,-0.044648878276348114,0.2807858884334564,0.9178433297880879,0.8425124883651733,0.9441774487495422,0.7978636026382446,0.9796114563941956,2.187255382537842,0.9970722198486328,,,,,,,
4633612000.0,103.55,1.5800000429153442,12041169408.0,1853.8534259806695,233.0,0.008323946967720985,958464.0,2184.8121371269226,1.617976586043568e-14,0.0,1.958149790763855,-0.019581496715545654,0.052507184445858,-0.019581496715545654,0.0,0.0,-0.05614197999238968,0.31919795274734497,0.9164463010277869,0.7225798964500427,1.0883501768112183,0.6664379835128784,1.1042749881744385,2.209451913833618,0.996910572052002,,,,,,,
4633612000.0,101.29,1.2799999713897705,12041169408.0,1850.689697838673,234.0,0.010712466202676296,962560.0,2187.0253660678864,1.7656015538491943e-14,0.0,1.91837477684021,-0.01918373629450798,0.0313422828912735,-0.019183747470378876,1.1175870895385742e-08,0.0,-0.04879535734653473,0.24559783935546875,0.9259535646535744,0.7373487949371338,0.8847097158432007,0.6885534524917603,0.9025524854660034,2.213228940963745,0.9969656467437744,,,,,,,
4633612000.0,96.63,1.3799999952316284,12041169408.0,1812.7833415127275,235.0,0.009017650038003922,966656.0,2189.2848749160767,1.8426232761825645e-14,0.0,1.8184901475906372,-0.018184907734394073,0.0686914324760437,-0.018184900283813477,-7.450580596923828e-09,0.0,-0.08569350838661194,0.36065393686294556,0.8672246670845601,1.0524600744247437,0.9830107688903809,0.9667665958404541,0.9897647500038147,2.2595088481903076,0.9967710971832275,,,,,,,
4633612000.0,100.7,1.600000023841858,12041169408.0,1826.8282494024481,236.0,0.013955583795905113,970752.0,2191.527012348175,1.7952653252883977e-14,0.0,1.8785152435302734,-0.01878514513373375,0.027128495275974274,-0.018785152584314346,7.450580596923828e-09,0.0,-0.033430710434913635,0.2305479347705841,0.9470328506937146,0.8051083087921143,0.9718126654624939,0.7716776132583618,1.0017467737197876,2.2421374320983887,0.9967870712280273,,,,,,,
4633612000.0,104.38,1.850000023841858,12041169408.0,1838.7033065873813,237.0,0.010732004418969154,974848.0,2193.754669189453,1.8813076096968473e-14,0.0,1.8674631118774414,-0.018674630671739578,0.03124130144715309,-0.018674630671739578,0.0,0.0,-0.006007084622979164,0.24992351233959198,0.9215215143686004,0.714815616607666,0.8824809789657593,0.7088085412979126,0.8921375870704651,2.227656841278076,0.9967255592346191,,,,,,,
4633612000.0,99.41,1.6200000047683716,12041169408.0,1857.8111750896553,238.0,0.010914994403719902,978944.0,2195.959414243698,1.6970799765481104e-14,0.0,1.770129919052124,-0.017701299861073494,0.029290594160556793,-0.017701297998428345,-1.862645149230957e-09,0.0,0.01429023314267397,0.2416427731513977,0.8910537508247863,0.49304935336112976,0.7391836047172546,0.507339596748352,0.7320953607559204,2.204745054244995,0.9966762065887451,,,,,,,
4633612000.0,89.56,1.3799999952316284,12041169408.0,1844.2084151720467,239.0,0.011434891261160374,983040.0,2198.1804213523865,1.7949183805932023e-14,0.0,1.8010601997375488,-0.018010597676038742,0.023176349699497223,-0.01801060140132904,3.725290298461914e-09,0.0,0.013307522982358932,0.2149113416671753,0.9371804745193951,0.5415823459625244,0.8368539214134216,0.5548899173736572,0.8574562668800354,2.2210071086883545,0.9973740577697754,,,,,,,
4633612000.0,95.32,1.4700000286102295,12041169408.0,1855.8508394440225,240.0,0.010418846271932125,987136.0,2200.387495279312,1.7373255611907723e-14,0.0,1.9229753017425537,-0.019229762256145477,0.030434707179665565,-0.01922975294291973,-9.313225746154785e-09,0.0,-0.0033259340561926365,0.24672497808933258,0.9240089045459521,0.7066454887390137,0.8822756409645081,0.7033195495605469,0.8950179815292358,2.207073926925659,0.9968039989471436,,,,,,,
4633612000.0,101.08,1.5399999618530273,12041169408.0,1859.9810323796148,241.0,0.010772522538900375,991232.0,2202.589668273926,1.878185107440089e-14,0.0,1.833709955215454,-0.018337106332182884,0.01656569540500641,-0.018337098881602287,-7.450580596923828e-09,0.0,0.028013065457344055,0.17987370491027832,0.9603681745595108,0.6946828961372375,0.8847947716712952,0.7226959466934204,0.9035364985466003,2.2021729946136475,0.9971368312835693,,,,,,,
4633612000.0,100.96,1.5299999713897705,12041169408.0,1819.3436444378174,242.0,0.010439667850732803,995328.0,2204.8410296440125,1.626129786380659e-14,0.0,1.9250179529190063,-0.01925017684698105,0.02987404353916645,-0.019250178709626198,1.862645149230957e-09,0.0,0.02006916143000126,0.24363867938518524,0.9368666622831451,0.5478404760360718,0.9337043166160583,0.5679095983505249,0.9696542620658875,2.25136137008667,0.996931791305542,,,,,,,
4633612000.0,97.15,1.3899999856948853,12041169408.0,1823.2653598275547,243.0,0.009930177591741085,999424.0,2207.087548494339,1.80706144492504e-14,0.0,1.861681580543518,-0.0186168160289526,0.026256155222654343,-0.0186168160289526,0.0,0.0,0.03230870142579079,0.2268943041563034,0.9499608214572702,0.6153297424316406,0.9615275859832764,0.6476384401321411,1.0143048763275146,2.246518850326538,0.9969234466552734,,,,,,,
4633612000.0,99.26,1.5,12041169408.0,1893.7729871398828,244.0,0.010961838066577911,1003520.0,2209.250426530838,1.529332216421153e-14,0.0,1.893497109413147,-0.01893496699631214,0.05525832250714302,-0.01893497072160244,3.725290298461914e-09,0.0,0.08059203624725342,0.322563111782074,0.9153928151764686,0.6520793437957764,0.9959626197814941,0.7326713800430298,1.1089478731155396,2.1628780364990234,0.9974932670593262,,,,,,,
4633612000.0,108.75,1.6699999570846558,12041169408.0,1827.2413321307627,245.0,0.011992979794740677,1007616.0,2211.4920570850372,1.7919693506840417e-14,0.0,1.863532543182373,-0.018635326996445656,0.05620037019252777,-0.018635325133800507,-1.862645149230957e-09,0.0,0.04639839380979538,0.3320765495300293,0.9191946735250006,0.7784249782562256,1.0856609344482422,0.8248233795166016,1.1682028770446777,2.2416305541992188,0.9977076053619385,,,,,,,
4633612000.0,114.95,2.1700000762939453,12041169408.0,1831.474218339401,246.0,0.01440452691167593,1011712.0,2213.7285068035126,1.6693244009324815e-14,0.0,1.9847439527511597,-0.019847441464662552,0.04269760474562645,-0.019847439602017403,-9.313225746154785e-10,0.0,0.025220870971679688,0.2911697328090668,0.9161173562390537,0.6633839011192322,0.8820903897285461,0.6886047720909119,1.005333662033081,2.236449718475342,0.9968273639678955,,,,,,,
4633612000.0,103.99,1.7999999523162842,12041169408.0,1867.1936131493167,247.0,0.009098557755351067,1015808.0,2215.9221732616425,1.784163095042146e-14,0.0,1.8855373859405518,-0.018855374306440353,0.028021089732646942,-0.018855374306440353,0.0,0.0,-0.0006443457677960396,0.23676033318042755,0.9449938124408367,0.6668640375137329,0.9971572756767273,0.6662195920944214,1.0094926357269287,2.193666458129883,0.9968371391296387,,,,,,,
4633612000.0,97.72,1.4299999475479126,12041169408.0,1847.2588302440079,248.0,0.010820170864462852,1019904.0,2218.1395127773285,1.677130656574377e-14,0.0,1.9465851783752441,-0.019465850666165352,0.037901923060417175,-0.019465850666165352,0.0,0.0,-0.025684736669063568,0.2741577625274658,0.9557158125337024,0.9956828951835632,1.2571995258331299,0.9699982404708862,1.30279541015625,2.217339515686035,0.9967739582061768,,,,,,,
4633612000.0,103.15,1.590000033378601,12041169408.0,1806.8474976496605,249.0,0.012890812009572983,1024000.0,2220.4064445495605,1.5529244556944377e-14,0.0,1.935184359550476,-0.01935184746980667,0.04915906488895416,-0.019351843744516373,-4.6566128730773926e-09,0.0,-0.009355277754366398,0.3134559094905853,0.9219062434210075,0.8405817747116089,1.0208722352981567,0.8312264680862427,1.1216782331466675,2.2669317722320557,0.9966185092926025,,,,,,,
4633612000.0,100.45,1.7400000095367432,12041169408.0,1877.639610234897,250.0,0.01358488854020834,1028096.0,2222.5879068374634,1.7465195956134494e-14,0.0,1.8638324737548828,-0.018638331443071365,0.04136774688959122,-0.01863832399249077,-7.450580596923828e-09,0.0,-0.01558910682797432,0.2872501015663147,0.9217214906845619,1.1068038940429688,0.9741316437721252,1.0912147760391235,1.026689052581787,2.181462287902832,0.9971714019775391,,,,,,,
4633612000.0,96.42,1.8300000429153442,12041169408.0,1821.3384017389992,251.0,0.012393446639180183,1032192.0,2224.836802482605,1.698294282981294e-14,0.0,1.9348797798156738,-0.019348789006471634,0.04507248476147652,-0.01934879645705223,7.450580596923828e-09,0.0,-0.005599813535809517,0.3002259433269501,0.927087887608534,0.7718737125396729,1.0104153156280518,0.7662738561630249,1.1118555068969727,2.2488956451416016,0.997488260269165,,,,,,,
4633612000.0,98.13,1.7699999809265137,12041169408.0,1781.8875439926285,252.0,0.012058228254318237,1036288.0,2227.135488510132,1.62456853525228e-14,0.0,1.908774495124817,-0.019087744876742363,0.0285056009888649,-0.019087744876742363,0.0,0.0,-0.029963048174977303,0.23691163957118988,0.9463751782233915,0.8485289812088013,1.0183910131454468,0.8185659646987915,1.0230656862258911,2.2986860275268555,0.9969818592071533,,,,,,,
4633612000.0,100.79,2.0399999618530273,12041169408.0,1822.214682707369,253.0,0.01688351482152939,1040384.0,2229.3833026885986,1.6948248360293405e-14,0.0,1.8760111331939697,-0.01876012608408928,0.05868399888277054,-0.018760111182928085,-1.3969838619232178e-08,0.0,0.03458119183778763,0.34088194370269775,0.9284610577796218,1.2024011611938477,1.2069687843322754,1.2369823455810547,1.2744792699813843,2.247814178466797,0.9968652725219727,,,,,,,
4633612000.0,105.04,2.049999952316284,12041169408.0,1848.624398197158,254.0,0.013614298775792122,1044480.0,2231.5990042686462,1.7938775465076162e-14,0.0,1.9215469360351562,-0.019215460866689682,0.03618387132883072,-0.01921546831727028,7.450580596923828e-09,0.0,-0.004368605092167854,0.26900988817214966,0.9462135535389274,0.9893187284469604,1.1347631216049194,0.984950065612793,1.1599302291870117,2.2157015800476074,0.9967679977416992,,,,,,,
4633612000.0,110.82,2.380000114440918,12041169408.0,1855.7762647000905,255.0,0.014478998258709908,1048576.0,2233.8061668872833,1.824929096727601e-14,0.0,1.8500875234603882,-0.018500864505767822,0.050916366279125214,-0.018500875681638718,1.0244548320770264e-08,0.0,-0.006275486666709185,0.3190896511077881,0.9283798176684905,1.0195322036743164,1.1207762956619263,1.0132567882537842,1.1923261880874634,2.207162618637085,0.996802568435669,,,,,,,
,,,,,,,,,,,,,,,,,,,,,,,,,,0.022739874199032784,0.08700969815254211,0.07061229646205902,0.022739874199032784,0.08700969815254211,0.07061229646205902,
,,,,,,,,,,,,,,,,,,,,,,,,,,0.011995254084467888,0.06448957324028015,0.060429058969020844,0.011995254084467888,0.06448957324028015,0.060429058969020844,
,,,,,,,,,,,,,,,,,,,,,,,,,,0.01020955853164196,0.05690833181142807,0.0600971020758152,0.01020955853164196,0.05690833181142807,0.0600971020758152,
,,,,,,,,,,,,,,,,,,,,,,,,,,0.01071991492062807,0.05879514291882515,0.06394172459840775,0.01071991492062807,0.05879514291882515,0.06394172459840775,
