CpuMaxMemory,EpLenMean,EpRewMean,GpuMaxMemory,IPS_total,Iter,Misc/FrameRewMean,Misc/InteractCount,Misc/TimeElapsed,Opt/approxkl,Opt/clipfrac,Opt/entropy,Opt/loss_pi,Opt/loss_vf,Opt/negent,Opt/pg,Opt/pi_kl,VFStats/AdvMean,VFStats/AdvStd,VFStats/EV,VFStats/VpredMean,VFStats/VpredStd,VFStats/VtargMean,VFStats/VtargStd,del_time,wait_optimization,scaled/pol_distance,scaled/vf_aux,scaled/vf_true,unscaled/pol_distance,unscaled/vf_aux,unscaled/vf_true,EvalEpMean
3178676000.0,80.38461538461539,-0.9487179517745972,12268077568.0,1036.5073072209937,0.0,-0.0098000792786479,4096.0,3.951732873916626,3.0531133177191805e-15,0.0,2.706488609313965,-0.027064908295869827,0.13848578929901123,-0.027064885944128036,-2.2351741790771484e-08,0.0,-0.15709659457206726,0.5023483037948608,0.0020957449505003556,0.009034156799316406,0.015103818848729134,-0.14806242287158966,0.502875566482544,3.951732873916626,1.0137395858764648,,,,,,,
3378840000.0,88.9047619047619,-2.202380895614624,12485313536.0,1086.083740222722,1.0,-0.011798212304711342,8192.0,7.723081111907959,3.733124920302089e-15,0.0,2.7000222206115723,-0.027000224217772484,0.12688666582107544,-0.027000222355127335,-2.3283064365386963e-09,0.0,-0.1022234857082367,0.4933387339115143,-0.012772321344449722,-0.31306618452072144,0.09115703403949738,-0.41528964042663574,0.49021804332733154,3.771348237991333,0.995995283126831,,,,,,,
3576572000.0,88.18,-2.990000009536743,12485313536.0,1093.8206103985694,2.0,-0.015385432168841362,12288.0,11.467753648757935,3.0878077872387166e-15,0.0,2.7007832527160645,-0.027007823809981346,0.18335238099098206,-0.027007831260561943,7.450580596923828e-09,0.0,-0.04358077794313431,0.6040650606155396,0.008531790533195194,-0.7437011003494263,0.23074960708618164,-0.7872818112373352,0.6066585183143616,3.7446725368499756,0.995905876159668,,,,,,,
3774308000.0,80.36,-2.509999990463257,12485313536.0,1082.8884412187542,3.0,-0.010388234630227089,16384.0,15.250230073928833,3.164135620181696e-15,0.0,2.7003703117370605,-0.02700372412800789,0.23674286901950836,-0.027003701776266098,-2.2351741790771484e-08,0.0,0.12859636545181274,0.6760623455047607,0.14607845886651016,-1.2442286014556885,0.36692723631858826,-1.1156322956085205,0.7316069006919861,3.7824764251708984,0.9957034587860107,,,,,,,
3971780000.0,79.5,-2.0899999141693115,12485313536.0,1067.0793142242694,4.0,-0.011865321546792984,20480.0,19.0887451171875,2.831068712794149e-15,0.0,2.7019386291503906,-0.02701938897371292,0.18307223916053772,-0.027019385248422623,-3.725290298461914e-09,0.0,0.05294277146458626,0.6028517484664917,0.057332484335733125,-0.8642805814743042,0.2681264579296112,-0.8113378286361694,0.6209136843681335,3.838515043258667,0.9957525730133057,,,,,,,
4169252000.0,77.47,-1.7100000381469727,12485313536.0,1062.2959831426317,5.0,-0.011060496792197227,24576.0,22.944544315338135,3.066991105526995e-15,0.0,2.699265480041504,-0.02699265070259571,0.17931529879570007,-0.02699265442788601,3.725290298461914e-09,0.0,-0.011100073345005512,0.5988279581069946,0.016513176493064052,-0.6392373442649841,0.18056632578372955,-0.6503374576568604,0.603834331035614,3.8557991981506348,0.9958651065826416,,,,,,,
4366984000.0,81.57,-2.2100000381469727,12485313536.0,1092.6862027472428,6.0,-0.01410601381212473,28672.0,26.69310450553894,2.949029909160572e-15,0.0,2.6987433433532715,-0.02698741853237152,0.1494429111480713,-0.026987433433532715,1.4901161193847656e-08,0.0,-0.11421120911836624,0.5347068905830383,0.03198964206810062,-0.44552114605903625,0.10380984097719193,-0.5597323179244995,0.5434701442718506,3.7485601902008057,0.9963216781616211,,,,,,,
4564456000.0,84.73,-2.4600000381469727,12485313536.0,1068.760066141697,7.0,-0.010574578307569027,32768.0,30.525583028793335,3.6637359812630166e-15,0.0,2.692561388015747,-0.02692561037838459,0.15141844749450684,-0.02692561410367489,3.725290298461914e-09,0.0,-0.05430823564529419,0.547686755657196,0.03868903332122842,-0.4033229351043701,0.12893657386302948,-0.4576311707496643,0.5585991144180298,3.8324785232543945,0.9954977035522461,,,,,,,
4761928000.0,82.74,-2.1500000953674316,12485313536.0,1074.6574321321766,8.0,-0.013179097324609756,36864.0,34.33703017234802,4.503342143635791e-15,0.0,2.679933786392212,-0.026799341663718224,0.18797801434993744,-0.026799337938427925,-3.725290298461914e-09,0.0,-0.11426655948162079,0.6024847030639648,0.0427087280988625,-0.4225413203239441,0.14088957011699677,-0.5368078947067261,0.6157776713371277,3.8114471435546875,0.9956042766571045,,,,,,,
4959664000.0,77.97,-2.430000066757202,12485313536.0,1095.0019018632447,9.0,-0.012077704071998596,40960.0,38.0776629447937,4.81906181626357e-15,0.0,2.6572399139404297,-0.026572393253445625,0.16017796099185944,-0.026572398841381073,5.587935447692871e-09,0.0,-0.04928439483046532,0.563918948173523,0.022730337149164503,-0.45571640133857727,0.1378353089094162,-0.5050007700920105,0.570439338684082,3.7406327724456787,0.9958810806274414,,,,,,,
5157136000.0,77.3,-2.0299999713897705,12485313536.0,1102.836016664634,10.0,-0.011391712352633476,45056.0,41.79172372817993,5.230191280070073e-15,0.0,2.5804882049560547,-0.025804884731769562,0.14242839813232422,-0.025804881006479263,-4.6566128730773926e-09,0.0,-0.0512918084859848,0.5313142538070679,0.05216302665436556,-0.5732886791229248,0.15418969094753265,-0.6245805025100708,0.5457385182380676,3.7140607833862305,0.996295690536499,,,,,,,
5355664000.0,84.38,-2.5999999046325684,12485313536.0,1091.204298183563,11.0,-0.015667133033275604,49152.0,45.545374631881714,5.969183480836193e-15,0.0,2.4610300064086914,-0.024610305204987526,0.2059929072856903,-0.024610299617052078,-5.587935447692871e-09,0.0,-0.05158194899559021,0.6398633122444153,0.008432480098606754,-0.6606460809707642,0.1923815757036209,-0.712228000164032,0.6425783634185791,3.7536509037017822,0.9961013793945312,,,,,,,
5553136000.0,84.17,-2.680000066757202,12485313536.0,1090.9457659932725,12.0,-0.014672600664198399,53248.0,49.299915075302124,6.213779490948923e-15,0.0,2.3480167388916016,-0.023480169475078583,0.19244179129600525,-0.023480167612433434,-1.862645149230957e-09,0.0,-0.046348877251148224,0.6187316179275513,0.06732443351251371,-0.7169506549835205,0.21000432968139648,-0.7632995843887329,0.6406739354133606,3.75454044342041,0.9958178997039795,,,,,,,
5751664000.0,82.89,-2.4700000286102295,12485313536.0,1079.196013200967,13.0,-0.011917848140001297,57344.0,53.095333099365234,7.837480664463214e-15,0.0,2.0840258598327637,-0.02084025740623474,0.18230006098747253,-0.02084025740623474,0.0,0.0,0.05530770123004913,0.6013563275337219,-0.006700772778494457,-0.9249682426452637,0.2606809437274933,-0.8696605563163757,0.5993515849113464,3.7954180240631104,0.9957432746887207,,,,,,,
5948964000.0,85.54,-2.4800000190734863,12485313536.0,1088.6054385443651,14.0,-0.00993946474045515,61440.0,56.85794520378113,9.069134332406747e-15,0.0,1.724609375,-0.017246108502149582,0.17748689651489258,-0.017246093600988388,-1.4901161193847656e-08,0.0,0.024670373648405075,0.5953584313392639,0.07207044730855117,-0.8532015085220337,0.24102172255516052,-0.8285311460494995,0.6180462837219238,3.7626121044158936,0.9958963394165039,,,,,,,
6147492000.0,89.24,-2.180000066757202,12485313536.0,1082.0452362595743,15.0,-0.009094886481761932,65536.0,60.64336919784546,9.591286098675766e-15,0.0,1.2815372943878174,-0.012815378606319427,0.14834138751029968,-0.01281537301838398,-5.587935447692871e-09,0.0,0.05836956575512886,0.5416154861450195,0.004534581290663642,-0.8269197940826416,0.25698381662368774,-0.7685502171516418,0.5428476929664612,3.785423994064331,0.9959557056427002,,,,,,,
6344172000.0,89.1,-1.7300000190734863,12485313536.0,1087.5202983601107,16.0,-0.007439306005835533,69632.0,64.40973567962646,1.0609568779074152e-14,0.0,1.0200891494750977,-0.010200884193181992,0.11314928531646729,-0.010200891643762589,7.450580596923828e-09,0.0,0.06339046359062195,0.47152358293533325,0.090401713970506,-0.8309713006019592,0.22171315550804138,-0.7675808668136597,0.4944002628326416,3.766366481781006,0.995884895324707,,,,,,,
6541908000.0,87.61,-1.440000057220459,12485313536.0,1101.0993249145808,17.0,-0.00829378142952919,73728.0,68.12965440750122,1.2179493524833163e-14,0.0,1.5440049171447754,-0.015440045855939388,0.14251253008842468,-0.015440048649907112,2.7939677238464355e-09,0.0,0.038107506930828094,0.5325806736946106,-0.00993566548484548,-0.6519432067871094,0.186644047498703,-0.6138358116149902,0.5299544334411621,3.719918727874756,0.9962341785430908,,,,,,,
6740172000.0,80.85,-1.7400000095367432,12485313536.0,1098.7345323956797,18.0,-0.011253245174884796,77824.0,71.85757946968079,1.0309461617730165e-14,0.0,1.8873391151428223,-0.018873389810323715,0.1621014028787613,-0.018873389810323715,0.0,0.0,-0.027941342443227768,0.5687715411186218,0.0012963764056017624,-0.5156652331352234,0.15715526044368744,-0.5436065196990967,0.5691405534744263,3.7279250621795654,0.995915412902832,,,,,,,
6937908000.0,80.14,-2.0399999618530273,12485313536.0,1080.901920993773,19.0,-0.013169173151254654,81920.0,75.64700746536255,9.265158085192127e-15,0.0,2.1441705226898193,-0.02144169807434082,0.1617640256881714,-0.021441705524921417,7.450580596923828e-09,0.0,-0.07807215303182602,0.5634805560112,-0.01137858782040535,-0.4064340591430664,0.11880701035261154,-0.484506219625473,0.5603018403053284,3.7894279956817627,0.9960265159606934,,,,,,,
7134852000.0,77.89,-2.009999990463257,12485313536.0,1083.2842037296032,20.0,-0.012666490860283375,86016.0,79.42810201644897,8.36657132463614e-15,0.0,2.2779011726379395,-0.022779012098908424,0.1582474559545517,-0.022779012098908424,0.0,0.0,-0.0827735960483551,0.5565240383148193,-0.02330958003007222,-0.3729003071784973,0.0932362973690033,-0.45567387342453003,0.550149142742157,3.781094551086426,0.9959092140197754,,,,,,,
7332324000.0,76.13,-2.0899999141693115,12485313536.0,1068.0568909373192,21.0,-0.010464505292475224,90112.0,83.263103723526,6.723788192886104e-15,0.0,2.3849472999572754,-0.02384946495294571,0.13535268604755402,-0.023849472403526306,7.450580596923828e-09,0.0,-0.04306560754776001,0.5185714960098267,-0.011519121398886112,-0.3299117088317871,0.09062367677688599,-0.3729773163795471,0.5156102776527405,3.8350017070770264,0.995966911315918,,,,,,,
7531644000.0,74.51,-1.7599999904632568,12485313536.0,1091.2942692322229,22.0,-0.00925817433744669,94208.0,87.01644515991211,5.929284840888727e-15,0.0,2.4568569660186768,-0.024568555876612663,0.1210569441318512,-0.024568568915128708,1.30385160446167e-08,0.0,-0.03448594734072685,0.4909006357192993,0.013987990323072297,-0.28686022758483887,0.09111292660236359,-0.3213461637496948,0.4943704307079315,3.7533414363861084,0.995774507522583,,,,,,,
7728324000.0,74.48,-1.3600000143051147,12485313536.0,1087.594102232345,23.0,-0.007620100863277912,98304.0,90.78255605697632,6.810524366684945e-15,0.0,2.483140468597412,-0.024831414222717285,0.1077156662940979,-0.02483140490949154,-9.313225746154785e-09,0.0,-0.03414986655116081,0.4629443287849426,-0.042112663744608536,-0.2755832374095917,0.08360156416893005,-0.309733122587204,0.4534938633441925,3.766110897064209,0.9957551956176758,,,,,,,
7926852000.0,75.89,-1.6299999952316284,12485313536.0,1095.1184680514602,24.0,-0.011836974881589413,102400.0,94.5227906703949,6.2814337065120185e-15,0.0,2.5101189613342285,-0.025101177394390106,0.17125774919986725,-0.025101188570261,1.1175870895385742e-08,0.0,-0.1162213385105133,0.5736623406410217,0.0345322224831055,-0.2964724898338318,0.07033567875623703,-0.4126938581466675,0.5838313698768616,3.740234613418579,0.9959993362426758,,,,,,,
8124028000.0,75.89,-2.240000009536743,12485313536.0,1082.7778078271565,25.0,-0.014881150797009468,106496.0,98.30565357208252,6.198166979665132e-15,0.0,2.55757474899292,-0.02557576820254326,0.16459761559963226,-0.025575747713446617,-2.0489096641540527e-08,0.0,-0.0738198459148407,0.5690562129020691,-0.012265332951140184,-0.31696146726608276,0.0701078474521637,-0.3907812833786011,0.56559818983078,3.782862901687622,0.9961659908294678,,,,,,,
8321696000.0,77.89,-2.1700000762939453,12485313536.0,1079.4211308159674,26.0,-0.014411211013793945,110592.0,102.10028004646301,5.320396900820867e-15,0.0,2.588468074798584,-0.02588467299938202,0.16594365239143372,-0.025884680449962616,6.51925802230835e-09,0.0,-0.10324957966804504,0.5668379068374634,0.03283873907791768,-0.33521175384521484,0.07470031827688217,-0.4384613037109375,0.5763807892799377,3.794626474380493,0.9963150024414062,,,,,,,
8519264000.0,79.46,-2.049999952316284,12485313536.0,1071.1219934941626,27.0,-0.00900256633758545,114688.0,105.92430758476257,5.2822329843493776e-15,0.0,2.590813398361206,-0.02590814046561718,0.12967629730701447,-0.025908133015036583,-7.450580596923828e-09,0.0,-0.0399295836687088,0.5077609419822693,-0.03070446813819605,-0.39940184354782104,0.09738205373287201,-0.43933141231536865,0.5001407265663147,3.8240275382995605,0.9979753494262695,,,,,,,
8716832000.0,79.71,-2.0999999046325684,12485313536.0,1081.1580955286597,28.0,-0.015112703666090965,118784.0,109.71283769607544,5.360295540768334e-15,0.0,2.5873866081237793,-0.02587386593222618,0.19975775480270386,-0.02587386593222618,0.0,0.0,-0.10280977189540863,0.6237311959266663,0.01597850792583788,-0.47298088669776917,0.11601711809635162,-0.5757906436920166,0.628774881362915,3.788530111312866,0.996514081954956,,,,,,,
8914400000.0,77.39,-2.4200000762939453,12485313536.0,1095.36347752371,29.0,-0.017508402466773987,122880.0,113.45223569869995,5.500808142322455e-15,0.0,2.5873045921325684,-0.025873038917779922,0.21614903211593628,-0.02587304450571537,4.6566128730773926e-09,0.0,-0.11255031079053879,0.6478680372238159,0.07556953006795553,-0.6097395420074463,0.159465953707695,-0.7222898602485657,0.6738285422325134,3.7393980026245117,0.9959008693695068,,,,,,,
9112136000.0,77.11,-2.490000009536743,12485313536.0,1073.0287963648157,30.0,-0.011178473941981792,126976.0,117.26946783065796,4.871103520542874e-15,0.0,2.611506462097168,-0.026115059852600098,0.15483756363391876,-0.026115063577890396,3.725290298461914e-09,0.0,0.02741086110472679,0.5558769702911377,0.05919215645946496,-0.7600469589233398,0.20918689668178558,-0.7326360940933228,0.5730971693992615,3.817232131958008,0.9962728023529053,,,,,,,
9309608000.0,77.17,-1.9500000476837158,12485313536.0,1083.3117321346947,31.0,-0.012196005322039127,131072.0,121.050466299057,4.864164626638967e-15,0.0,2.5972442626953125,-0.025972438976168633,0.19177976250648499,-0.02597244270145893,3.725290298461914e-09,0.0,0.1036839559674263,0.6106555461883545,0.01027980823604202,-0.9303820133209229,0.24761353433132172,-0.8266981244087219,0.6138187646865845,3.780998468399048,0.9959397315979004,,,,,,,
,,,,,,,,,,,,,,,,,,,,,,,,,,0.0040189726278185844,0.1957520693540573,0.18864841759204865,0.0040189726278185844,0.1957520693540573,0.18864841759204865,
,,,,,,,,,,,,,,,,,,,,,,,,,,0.0026425581891089678,0.18253923952579498,0.17890918254852295,0.0026425581891089678,0.18253923952579498,0.17890918254852295,
,,,,,,,,,,,,,,,,,,,,,,,,,,0.0013663031859323382,0.17094242572784424,0.16679443418979645,0.0013663031859323382,0.17094242572784424,0.16679443418979645,
,,,,,,,,,,,,,,,,,,,,,,,,,,0.0012149489484727383,0.1617407649755478,0.15758471190929413,0.0012149489484727383,0.1617407649755478,0.15758471190929413,
,,,,,,,,,,,,,,,,,,,,,,,,,,0.0017499219393357635,0.15615898370742798,0.15393759310245514,0.0017499219393357635,0.15615898370742798,0.15393759310245514,
,,,,,,,,,,,,,,,,,,,,,,,,,,0.0013751103542745113,0.14709480106830597,0.14453361928462982,0.0013751103542745113,0.14709480106830597,0.14453361928462982,
,,,,,,,,,,,,,,,,,,,,,,,,,,,,,,,,-1.8
9363816000.0,74.42,-1.8600000143051147,12293100544.0,15.953939070783417,32.0,-0.012334968894720078,135168.0,377.789568901062,4.8433479449272454e-15,0.0,2.572312831878662,-0.02572312392294407,0.14252418279647827,-0.025723127648234367,3.725290298461914e-09,0.0,-0.07171157747507095,0.5291258692741394,0.2507135017700386,-0.41903504729270935,0.21083395183086395,-0.4907466173171997,0.6112727522850037,256.739102602005,0.9962260723114014,,,,,,,
9363816000.0,73.64,-1.6100000143051147,12495335936.0,1097.3478334241408,33.0,-0.00825196597725153,139264.0,381.52220487594604,4.8606951796870135e-15,0.0,2.581547260284424,-0.025815466418862343,0.10305166989564896,-0.02581547200679779,5.587935447692871e-09,0.0,0.026713479310274124,0.4532547891139984,0.2809843944090804,-0.420974463224411,0.20817019045352936,-0.394260972738266,0.5345314145088196,3.732635974884033,0.9959301948547363,,,,,,,
9363816000.0,73.32,-1.659999966621399,12495335936.0,1081.8523357294216,34.0,-0.013441711664199829,143360.0,385.3083038330078,4.442626821976603e-15,0.0,2.582951545715332,-0.025829527527093887,0.13952194154262543,-0.025829514488577843,-1.3969838619232178e-08,0.0,-0.033889040350914,0.5272222757339478,0.357912105257457,-0.4903704524040222,0.2561121881008148,-0.5242595076560974,0.6579554080963135,3.7860989570617676,0.9957776069641113,,,,,,,
9363816000.0,75.59,-1.5700000524520874,12495335936.0,1086.6555708884653,35.0,-0.006795314606279135,147456.0,389.0776674747467,4.702835343373124e-15,0.0,2.6046085357666016,-0.02604609914124012,0.09062883257865906,-0.026046084240078926,-1.4901161193847656e-08,0.0,0.04498341679573059,0.4234122335910797,0.3427852842259057,-0.46005499362945557,0.2462981641292572,-0.4150715470314026,0.5222876667976379,3.7693636417388916,0.9956555366516113,,,,,,,
9363816000.0,77.5,-1.5499999523162842,12495335936.0,1101.1475983582905,36.0,-0.011776169762015343,151552.0,392.79742312431335,4.5467102305352114e-15,0.0,2.598646402359009,-0.025986455380916595,0.10772688686847687,-0.025986462831497192,7.450580596923828e-09,0.0,-0.030978333204984665,0.4631916582584381,0.39571242341029267,-0.5009364485740662,0.2852967083454132,-0.5319148302078247,0.5958526730537415,3.7197556495666504,0.9958643913269043,,,,,,,
9363816000.0,78.09,-2.490000009536743,12495335936.0,1083.8392771456174,37.0,-0.017828475683927536,155648.0,396.5765812397003,4.503342143635791e-15,0.0,2.609137535095215,-0.02609136514365673,0.16700302064418793,-0.026091374456882477,9.313225746154785e-09,0.0,-0.09964700043201447,0.5693466663360596,0.4062286241342541,-0.606860876083374,0.3435271680355072,-0.7065078616142273,0.7388685345649719,3.779158115386963,0.9957787990570068,,,,,,,
9363816000.0,80.02,-2.75,12495335936.0,1094.499973688479,38.0,-0.016049625352025032,159744.0,400.31892943382263,4.543240783583258e-15,0.0,2.586064338684082,-0.025860648602247238,0.15855443477630615,-0.02586064301431179,-5.587935447692871e-09,0.0,-0.020902108401060104,0.5628048777580261,0.44513665385466583,-0.6926290392875671,0.3969091475009918,-0.7135311365127563,0.7555527687072754,3.7423481941223145,0.9959537982940674,,,,,,,
9363816000.0,76.12,-2.2300000190734863,12495335936.0,1090.8781562367847,39.0,-0.011617389507591724,163840.0,404.07370257377625,4.414871246360974e-15,0.0,2.5713915824890137,-0.02571391686797142,0.12903741002082825,-0.02571391500532627,-2.7939677238464355e-09,0.0,0.07018880546092987,0.5031999349594116,0.5266474248804025,-0.7808773517608643,0.5297951102256775,-0.710688591003418,0.7313887476921082,3.7547731399536133,0.9960176944732666,,,,,,,
9363816000.0,75.86,-2.059999942779541,12495335936.0,1084.2531158314277,40.0,-0.012797042727470398,167936.0,407.85141825675964,4.081804338973427e-15,0.0,2.5536727905273438,-0.02553674206137657,0.1605360209941864,-0.025536727160215378,-1.5832483768463135e-08,0.0,0.09836555272340775,0.5580970644950867,0.47241010379274984,-0.916390597820282,0.5189962983131409,-0.8180251121520996,0.7683542966842651,3.7777156829833984,0.9959228038787842,,,,,,,
9363816000.0,77.51,-1.5399999618530273,12495335936.0,1115.162007660014,41.0,-0.007392860017716885,172032.0,411.52442717552185,3.965577866082981e-15,0.0,2.5259218215942383,-0.02525920979678631,0.12989442050457,-0.025259217247366905,7.450580596923828e-09,0.0,0.14731518924236298,0.4880012571811676,0.44798141205910347,-0.8096516132354736,0.45713022351264954,-0.6623363494873047,0.6568165421485901,3.673008918762207,0.9956982135772705,,,,,,,
9363816000.0,75.51,-1.0800000429153442,12495335936.0,1095.6921675972787,42.0,-0.007649528793990612,176128.0,415.2627034187317,4.548444954011188e-15,0.0,2.451888084411621,-0.024518895894289017,0.12793585658073425,-0.024518880993127823,-1.4901161193847656e-08,0.0,0.17105114459991455,0.4760972261428833,0.4780018097014943,-0.8775924444198608,0.5229058265686035,-0.7065413594245911,0.6589632034301758,3.738276243209839,0.9960470199584961,,,,,,,
9363816000.0,71.65,-1.6799999475479126,12495335936.0,1092.4978266885896,43.0,-0.013003258034586906,180224.0,419.01190996170044,4.3836462237933915e-15,0.0,2.440732479095459,-0.02440732903778553,0.14709199965000153,-0.024407323449850082,-5.587935447692871e-09,0.0,0.057382307946681976,0.5394092202186584,0.44567725196224717,-0.7738612294197083,0.4606061279773712,-0.7164789438247681,0.7244977355003357,3.74920654296875,0.9960880279541016,,,,,,,
9363816000.0,74.14,-2.130000114440918,12495335936.0,1116.397415552795,44.0,-0.013496777042746544,184320.0,422.6808543205261,4.890185478778619e-15,0.0,2.445571184158325,-0.02445570006966591,0.11713440716266632,-0.024455711245536804,1.210719347000122e-08,0.0,0.07097271084785461,0.4788399338722229,0.5299625115991599,-0.6667916178703308,0.4669142961502075,-0.5958188772201538,0.6984318494796753,3.6689443588256836,0.9959197044372559,,,,,,,
9363816000.0,78.19,-1.8899999856948853,12495335936.0,1067.411672502682,45.0,-0.011315885931253433,188416.0,426.51817417144775,4.435687928072696e-15,0.0,2.442013740539551,-0.024420130997896194,0.1109839677810669,-0.024420136585831642,5.587935447692871e-09,0.0,0.013064324855804443,0.47101107239723206,0.5142197346274606,-0.5581721067428589,0.40899932384490967,-0.5451078414916992,0.6757891178131104,3.837319850921631,0.9957292079925537,,,,,,,
9363816000.0,76.25,-1.809999942779541,12495335936.0,1112.5905660150083,46.0,-0.010848280973732471,192512.0,430.19967222213745,4.4027281820291364e-15,0.0,2.4405884742736816,-0.024405891075730324,0.11214470863342285,-0.024405883625149727,-7.450580596923828e-09,0.0,0.01384987123310566,0.4734472930431366,0.4668655170258199,-0.4434552788734436,0.3285943865776062,-0.4296054244041443,0.6484152674674988,3.6814980506896973,0.9959678649902344,,,,,,,
9363816000.0,73.17,-1.75,12495335936.0,1090.6420034954135,47.0,-0.011079220101237297,196608.0,433.9552583694458,4.345482307321902e-15,0.0,2.4207775592803955,-0.02420777454972267,0.10322479903697968,-0.02420777454972267,0.0,0.0,-0.013199206441640854,0.4542309641838074,0.3884342942972798,-0.35077768564224243,0.2881104648113251,-0.3639768958091736,0.580838143825531,3.7555861473083496,0.9960212707519531,,,,,,,
9363816000.0,75.17,-1.7999999523162842,12495335936.0,1095.0732346319355,48.0,-0.009112227708101273,200704.0,437.69564747810364,4.534567166203374e-15,0.0,2.3308587074279785,-0.023308590054512024,0.09580210596323013,-0.023308586329221725,-3.725290298461914e-09,0.0,0.013406598940491676,0.43757426738739014,0.3978750870878256,-0.36222702264785767,0.331620454788208,-0.34882041811943054,0.5639082193374634,3.740389108657837,0.996013879776001,,,,,,,
9363816000.0,73.37,-1.4199999570846558,12495335936.0,1095.0819599235197,49.0,-0.007865190505981445,204800.0,441.4360067844391,4.9769216525774596e-15,0.0,2.2885990142822266,-0.022885991260409355,0.07634499669075012,-0.022885989397764206,-1.862645149230957e-09,0.0,0.015357617288827896,0.39050137996673584,0.3405311339983862,-0.32019466161727905,0.2903417944908142,-0.30483704805374146,0.48086750507354736,3.740359306335449,0.996931791305542,,,,,,,
9363816000.0,70.48,-1.3899999856948853,12495335936.0,1106.4629057418456,50.0,-0.010832222178578377,208896.0,445.13789319992065,4.576200529626817e-15,0.0,2.3319058418273926,-0.023319067433476448,0.07661713659763336,-0.023319058120250702,-9.313225746154785e-09,0.0,-0.0042967298068106174,0.39147573709487915,0.31609557810124655,-0.22517941892147064,0.22687378525733948,-0.22947615385055542,0.47337689995765686,3.7018864154815674,0.9959416389465332,,,,,,,
9363816000.0,73.98,-1.2200000286102295,12495335936.0,1094.1956227765622,51.0,-0.005542849190533161,212992.0,448.8812823295593,4.7080395138010545e-15,0.0,2.2227942943573,-0.0222279354929924,0.10063084959983826,-0.022227942943572998,7.450580596923828e-09,0.0,0.004683259874582291,0.44865232706069946,0.26038138401560207,-0.228704035282135,0.22967912256717682,-0.22402077913284302,0.5216821432113647,3.743389129638672,0.9961707592010498,,,,,,,
9363816000.0,75.12,-1.5499999523162842,12495335936.0,1092.3915420527528,52.0,-0.01439930684864521,217088.0,452.6308536529541,5.0584536559483695e-15,0.0,2.105144500732422,-0.021051447838544846,0.12911370396614075,-0.021051444113254547,-3.026798367500305e-09,0.0,-0.10484775900840759,0.49728742241859436,0.27573567882444794,-0.23116423189640045,0.23908570408821106,-0.33601200580596924,0.5843309164047241,3.7495713233947754,0.9958539009094238,,,,,,,
9363816000.0,73.21,-1.7599999904632568,12495335936.0,1098.4015568010595,53.0,-0.008281199261546135,221184.0,456.3599088191986,4.8520215623071294e-15,0.0,2.0955891609191895,-0.02095588482916355,0.07255242764949799,-0.020955890417099,5.587935447692871e-09,0.0,0.01169581338763237,0.3807932138442993,0.29638973522102785,-0.2225954234600067,0.253340482711792,-0.21089962124824524,0.45396578311920166,3.729055166244507,0.9957857131958008,,,,,,,
9363816000.0,75.39,-1.090000033378601,12495335936.0,1085.014308908831,54.0,-0.004042366985231638,225280.0,460.1349742412567,5.2562121322097255e-15,0.0,2.1099870204925537,-0.02109988033771515,0.04987006634473801,-0.021099869161844254,-1.1175870895385742e-08,0.0,0.04358255863189697,0.31283316016197205,0.2946430016788333,-0.21159496903419495,0.23142509162425995,-0.16801241040229797,0.37248459458351135,3.7750654220581055,0.9961440563201904,,,,,,,
9363816000.0,76.67,-0.7099999785423279,12495335936.0,1103.6505468861367,55.0,-0.008459588512778282,229376.0,463.846293926239,4.5276282722994665e-15,0.0,2.147381067276001,-0.021473810076713562,0.08758880943059921,-0.021473810076713562,-9.313225746154785e-10,0.0,-0.020553050562739372,0.4180883467197418,0.3596206063691435,-0.19845303893089294,0.25658243894577026,-0.21900606155395508,0.5224555730819702,3.7113196849823,0.9960429668426514,,,,,,,
9363816000.0,74.48,-1.5499999523162842,12495335936.0,1110.1188937341906,56.0,-0.01419968530535698,233472.0,467.5359888076782,5.434888650235337e-15,0.0,2.10986590385437,-0.021098660305142403,0.09994634985923767,-0.021098658442497253,-1.862645149230957e-09,0.0,-0.06189969182014465,0.44284194707870483,0.4511419088804369,-0.2419220209121704,0.3285501301288605,-0.3038216829299927,0.5977488160133362,3.689694881439209,0.9961950778961182,,,,,,,
9363816000.0,73.06,-1.5199999809265137,12495335936.0,1109.0319841966257,57.0,-0.005616401322185993,237568.0,471.22929978370667,4.661201979949681e-15,0.0,2.122647762298584,-0.02122648060321808,0.08126115798950195,-0.02122647687792778,-3.725290298461914e-09,0.0,0.0033083443995565176,0.4031762182712555,0.35190094448849696,-0.1962462216615677,0.24317561089992523,-0.19293788075447083,0.5008113980293274,3.6933109760284424,0.9958992004394531,,,,,,,
9363816000.0,69.97,-1.2100000381469727,12495335936.0,1078.8186772690608,58.0,-0.009095443412661552,241664.0,475.0260453224182,4.8242659866915005e-15,0.0,2.180739402770996,-0.02180737815797329,0.11123145371675491,-0.021807393059134483,1.4901161193847656e-08,0.0,-0.032160691916942596,0.47061944007873535,0.38763952783931255,-0.24450035393238068,0.29994717240333557,-0.27666106820106506,0.6014040112495422,3.796745538711548,0.9961860179901123,,,,,,,
9363816000.0,73.08,-1.399999976158142,12495335936.0,1092.9591192641874,59.0,-0.00874696671962738,245760.0,478.77366948127747,4.695896449469217e-15,0.0,2.166386842727661,-0.02166387252509594,0.08862553536891937,-0.02166386879980564,-3.725290298461914e-09,0.0,-0.02459130249917507,0.4203444719314575,0.5278754025899921,-0.30626180768013,0.369123250246048,-0.33085310459136963,0.611754298210144,3.747624158859253,0.9964597225189209,,,,,,,
9363816000.0,75.98,-1.4600000381469727,12495335936.0,1104.3984051799894,60.0,-0.009960638359189034,249856.0,482.48247599601746,4.845082668403222e-15,0.0,2.1714224815368652,-0.021714234724640846,0.07345344126224518,-0.02171422354876995,-1.1175870895385742e-08,0.0,0.012221230193972588,0.38313624262809753,0.5315405380602415,-0.3121601939201355,0.36851295828819275,-0.29993894696235657,0.5597797632217407,3.7088065147399902,0.996100664138794,,,,,,,
9363816000.0,72.74,-1.2300000190734863,12495335936.0,1101.7683313713414,61.0,-0.0073346300050616264,253952.0,486.2001359462738,4.503342143635791e-15,0.0,2.2099788188934326,-0.022099783644080162,0.09218689799308777,-0.02209978736937046,3.725290298461914e-09,0.0,0.04973064735531807,0.4265502095222473,0.5088220530737982,-0.3664920926094055,0.4368862211704254,-0.31676146388053894,0.6086263656616211,3.7176599502563477,0.9960954189300537,,,,,,,
9363816000.0,75.04,-1.3899999856948853,12495335936.0,1104.724300319337,62.0,-0.011895041912794113,258048.0,489.9078483581543,4.584874147006701e-15,0.0,2.2799952030181885,-0.022799937054514885,0.09939781576395035,-0.02279995195567608,1.4901161193847656e-08,0.0,-0.015733538195490837,0.44564175605773926,0.6000935956580629,-0.3990955054759979,0.48130595684051514,-0.4148290455341339,0.7047039270401001,3.707712411880493,0.9958934783935547,,,,,,,
9363816000.0,74.94,-1.2300000190734863,12495335936.0,1094.0333389776033,63.0,-0.0034966557286679745,262144.0,493.6517927646637,4.638650574761982e-15,0.0,2.262991428375244,-0.022629912942647934,0.07316906750202179,-0.022629912942647934,0.0,0.0,0.08857541531324387,0.37219128012657166,0.39143810036133253,-0.3645331859588623,0.39758065342903137,-0.27595776319503784,0.4771048128604889,3.7439444065093994,0.996351957321167,,,,,,,
,,,,,,,,,,,,,,,,,,,,,,,,,,0.0024406162556260824,0.13451814651489258,0.1170189306139946,0.0024406162556260824,0.13451814651489258,0.1170189306139946,
,,,,,,,,,,,,,,,,,,,,,,,,,,0.0013578198850154877,0.11459723114967346,0.10275536775588989,0.0013578198850154877,0.11459723114967346,0.10275536775588989,
,,,,,,,,,,,,,,,,,,,,,,,,,,0.0014715692959725857,0.10172587633132935,0.09239015728235245,0.0014715692959725857,0.10172587633132935,0.09239015728235245,
,,,,,,,,,,,,,,,,,,,,,,,,,,0.002323503140360117,0.09700296074151993,0.08838440477848053,0.002323503140360117,0.09700296074151993,0.08838440477848053,
,,,,,,,,,,,,,,,,,,,,,,,,,,0.0018426227616146207,0.0895034447312355,0.0841822698712349,0.0018426227616146207,0.0895034447312355,0.0841822698712349,
,,,,,,,,,,,,,,,,,,,,,,,,,,0.0020891898311674595,0.0828436091542244,0.07759827375411987,0.0020891898311674595,0.0828436091542244,0.07759827375411987,
,,,,,,,,,,,,,,,,,,,,,,,,,,,,,,,,-1.05
9389200000.0,73.92,-0.8500000238418579,12293103616.0,15.960102709486911,64.0,-0.008930834010243416,266240.0,750.291745185852,5.06886199680423e-15,0.0,2.297792911529541,-0.02297791838645935,0.06439491361379623,-0.022977927699685097,8.381903171539307e-09,0.0,0.0326455757021904,0.3574286997318268,0.6734514360901466,-0.3097377419471741,0.42294546961784363,-0.2770921587944031,0.6254830360412598,256.63995242118835,0.9959702491760254,,,,,,,
9389200000.0,72.7,-1.0800000429153442,12495335936.0,1088.9405069494012,65.0,-0.006044879090040922,270336.0,754.0531995296478,5.081005061136068e-15,0.0,2.2460620403289795,-0.02246062085032463,0.056453436613082886,-0.02246061898767948,-1.862645149230957e-09,0.0,0.0532681979238987,0.33180755376815796,0.6092519100842644,-0.2751316428184509,0.36396315693855286,-0.22186343371868134,0.5308085083961487,3.7614543437957764,0.9960167407989502,,,,,,,
9389200000.0,72.28,-1.2300000190734863,12495335936.0,1066.5808005054066,66.0,-0.008849233388900757,274432.0,757.8935086727142,5.30825383648903e-15,0.0,2.3238062858581543,-0.023238059133291245,0.07034702599048615,-0.023238062858581543,3.725290298461914e-09,0.0,0.01491425558924675,0.37484118342399597,0.5892066081749174,-0.32046157121658325,0.3897401690483093,-0.305547297000885,0.5848379731178284,3.8403091430664062,0.9959514141082764,,,,,,,
9389200000.0,72.23,-1.9600000381469727,12495335936.0,1084.8104158757847,67.0,-0.015385974198579788,278528.0,761.6692836284637,5.159067617555024e-15,0.0,2.3116488456726074,-0.02311648428440094,0.0809459313750267,-0.02311648800969124,3.725290298461914e-09,0.0,-0.03948535397648811,0.40046465396881104,0.6653488238590692,-0.3567054569721222,0.44920605421066284,-0.3961908221244812,0.6922580003738403,3.7757749557495117,0.9957218170166016,,,,,,,
9389200000.0,75.4,-1.6699999570846558,12495335936.0,1083.3846925910364,68.0,-0.007170320954173803,282624.0,765.4500274658203,4.9318188422020626e-15,0.0,2.3384342193603516,-0.023384349420666695,0.06135255843400955,-0.023384341970086098,-7.450580596923828e-09,0.0,0.014555001631379128,0.35003310441970825,0.6181060154853244,-0.31122326850891113,0.41294148564338684,-0.29666823148727417,0.5664188861846924,3.7807438373565674,0.9965128898620605,,,,,,,
9389200000.0,73.35,-1.100000023841858,12495335936.0,1060.1939369898125,69.0,-0.007673219777643681,286720.0,769.3134715557098,4.867634073590921e-15,0.0,2.307403802871704,-0.023074019700288773,0.07299536466598511,-0.023074038326740265,1.862645149230957e-08,0.0,0.027063708752393723,0.3811741769313812,0.6291480383813921,-0.3285501003265381,0.4734170734882355,-0.30148637294769287,0.6259262561798096,3.8634440898895264,0.9964826107025146,,,,,,,
9389200000.0,72.84,-1.1399999856948853,12495335936.0,1089.0507464745358,70.0,-0.007313287816941738,290816.0,773.0745451450348,5.431419203283383e-15,0.0,2.3047943115234375,-0.02304793894290924,0.060920149087905884,-0.02304794266819954,4.190951585769653e-09,0.0,0.059120722115039825,0.3440551459789276,0.7149380847106251,-0.35286110639572144,0.5003785490989685,-0.2937403917312622,0.6444043517112732,3.761073589324951,0.995983362197876,,,,,,,
9389200000.0,73.96,-1.2300000190734863,12495335936.0,1076.9029379615188,71.0,-0.00854052696377039,294912.0,776.8780448436737,5.348152476436496e-15,0.0,2.3173179626464844,-0.02317318320274353,0.06795702874660492,-0.023173179477453232,-3.725290298461914e-09,0.0,0.031670331954956055,0.36734727025032043,0.6593091849557691,-0.31075364351272583,0.4945243299007416,-0.2790833115577698,0.6293562650680542,3.803499698638916,0.9958646297454834,,,,,,,
9389200000.0,74.35,-1.399999976158142,12495335936.0,1090.4035307002025,72.0,-0.011123224161565304,299008.0,780.6344523429871,5.1399856593192794e-15,0.0,2.2736709117889404,-0.02273671329021454,0.06723225116729736,-0.02273670770227909,-5.587935447692871e-09,0.0,0.02742787078022957,0.3657114505767822,0.6921415000743207,-0.3535829484462738,0.5623331665992737,-0.32615506649017334,0.6591176986694336,3.7564074993133545,0.9958441257476807,,,,,,,
9389200000.0,75.34,-1.6799999475479126,12495335936.0,1108.7474049595205,73.0,-0.011244270950555801,303104.0,784.328711271286,5.266620473065586e-15,0.0,2.2686171531677246,-0.022686168551445007,0.07637780904769897,-0.022686170414090157,1.862645149230957e-09,0.0,0.008974508382380009,0.39078429341316223,0.6997702737496788,-0.3230648338794708,0.5702757835388184,-0.3140903115272522,0.713198184967041,3.69425892829895,0.9957609176635742,,,,,,,
9389200000.0,75.59,-1.690000057220459,12495335936.0,1080.1695076766182,74.0,-0.009531494230031967,307200.0,788.1207087039948,4.874572967494828e-15,0.0,2.3441972732543945,-0.023441964760422707,0.06280816346406937,-0.023441972211003304,7.450580596923828e-09,0.0,0.023723412305116653,0.35367223620414734,0.7529749860485553,-0.33183345198631287,0.5932371616363525,-0.3081100583076477,0.7115911245346069,3.7919974327087402,0.9960989952087402,,,,,,,
9389200000.0,75.71,-1.4199999570846558,12495335936.0,1101.0305919641844,75.0,-0.008809355087578297,311296.0,791.8408596515656,5.048045315092509e-15,0.0,2.337775230407715,-0.023377755656838417,0.07506316900253296,-0.02337775193154812,-3.725290298461914e-09,0.0,0.0321517214179039,0.38617226481437683,0.6692207475379996,-0.2735513150691986,0.5595804452896118,-0.2413995862007141,0.6714473366737366,3.720150947570801,0.9960753917694092,,,,,,,
9389200000.0,74.38,-1.600000023841858,12495335936.0,1077.6787190706048,76.0,-0.01431615836918354,315392.0,795.6416213512421,4.921410501346202e-15,0.0,2.3422226905822754,-0.023422226309776306,0.06594735383987427,-0.023422226309776306,0.0,0.0,0.0010812534019351006,0.363215833902359,0.8330277808467172,-0.3867388963699341,0.7528607249259949,-0.3856576383113861,0.8888790607452393,3.8007616996765137,0.9959588050842285,,,,,,,
9389200000.0,75.87,-1.5,12495335936.0,1111.0320883772613,77.0,-0.006113812327384949,319488.0,799.3282835483551,4.7982451345518484e-15,0.0,2.3594136238098145,-0.02359413541853428,0.07719765603542328,-0.02359413541853428,0.0,0.0,0.026639636605978012,0.39207547903060913,0.6622118064726075,-0.25825759768486023,0.537059485912323,-0.2316179722547531,0.6746017336845398,3.686662197113037,0.9959118366241455,,,,,,,
9389200000.0,75.88,-1.3799999952316284,12495335936.0,1098.6275226579264,78.0,-0.009903386235237122,323584.0,803.0565717220306,5.0306980803327406e-15,0.0,2.295809268951416,-0.022958096116781235,0.07000631093978882,-0.022958092391490936,-3.725290298461914e-09,0.0,0.009817966260015965,0.3740994334220886,0.6939279752964668,-0.2455364167690277,0.525191605091095,-0.23571845889091492,0.6762001514434814,3.728288173675537,0.996225118637085,,,,,,,
9389200000.0,74.02,-1.6200000047683716,12495335936.0,1065.3920799216341,79.0,-0.011258000507950783,327680.0,806.9011657238007,4.820796539739547e-15,0.0,2.299259662628174,-0.022992610931396484,0.07661791145801544,-0.02299259603023529,-1.4901161193847656e-08,0.0,-0.0075590480118989944,0.39142826199531555,0.7081684776457416,-0.2786409556865692,0.6170296669006348,-0.28619998693466187,0.7245795726776123,3.8445940017700195,0.9982571601867676,,,,,,,
9389200000.0,74.31,-1.5800000429153442,12495335936.0,1095.7125731424007,80.0,-0.008333409205079079,331776.0,810.6393723487854,5.4088677980956845e-15,0.0,2.202381134033203,-0.02202380821108818,0.06001290678977966,-0.02202381007373333,1.862645149230957e-09,0.0,0.004278253763914108,0.34646329283714294,0.7260508384299207,-0.25996166467666626,0.5332701206207275,-0.25568339228630066,0.6619455218315125,3.738206624984741,0.995980978012085,,,,,,,
9389200000.0,73.49,-1.190000057220459,12495335936.0,1113.1567567315396,81.0,-0.006385320331901312,335872.0,814.3189978599548,6.00908212078366e-15,0.0,2.109574794769287,-0.021095754578709602,0.06479156017303467,-0.021095747128129005,-7.450580596923828e-09,0.0,0.0571376197040081,0.3554564118385315,0.6816060506394029,-0.2449784278869629,0.5906724333763123,-0.18784081935882568,0.6299469470977783,3.6796255111694336,0.9964683055877686,,,,,,,
9389200000.0,71.53,-1.100000023841858,12495335936.0,1069.5200273819132,82.0,-0.009343304671347141,339968.0,818.1487531661987,5.7506083228631155e-15,0.0,2.0634212493896484,-0.020634213462471962,0.058425381779670715,-0.020634211599826813,-1.862645149230957e-09,0.0,0.04562819376587868,0.3388168513774872,0.8025202418149443,-0.31977540254592896,0.7232459187507629,-0.2741472125053406,0.7624364495277405,3.8297553062438965,0.9959709644317627,,,,,,,
9389200000.0,71.55,-1.1100000143051147,12495335936.0,1075.0215027213019,83.0,-0.004931039176881313,344064.0,821.9589095115662,5.955305693028379e-15,0.0,2.0035853385925293,-0.020035862922668457,0.04074868559837341,-0.02003585360944271,-1.0244548320770264e-08,0.0,0.059344321489334106,0.27927523851394653,0.7463147305826239,-0.22568777203559875,0.5596071481704712,-0.16634343564510345,0.554478645324707,3.8101563453674316,0.9962098598480225,,,,,,,
9389200000.0,75.68,-0.8899999856948853,12495335936.0,1084.5654482468005,84.0,-0.006054338999092579,348160.0,825.7355372905731,6.789707684973223e-15,0.0,1.918662667274475,-0.019186625257134438,0.047554947435855865,-0.019186627119779587,1.862645149230957e-09,0.0,0.03343460336327553,0.3066186308860779,0.7564953975326508,-0.19891245663166046,0.6174297332763672,-0.16547784209251404,0.6213623285293579,3.776627779006958,0.9962184429168701,,,,,,,
9389200000.0,75.71,-1.0499999523162842,12495335936.0,1074.4685004777293,85.0,-0.007053491659462452,352256.0,829.5476546287537,7.105427357601002e-15,0.0,1.8855931758880615,-0.018855944275856018,0.04288630187511444,-0.018855931237339973,-1.30385160446167e-08,0.0,-0.0011793298181146383,0.29290297627449036,0.7454459112936309,-0.11056588590145111,0.5008253455162048,-0.1117452085018158,0.5805421471595764,3.812117338180542,0.9964468479156494,,,,,,,
9389200000.0,73.95,-0.7799999713897705,12495335936.0,1061.4363928780413,86.0,-0.003349472302943468,356352.0,833.4065763950348,6.815728537112875e-15,0.0,1.9185452461242676,-0.01918545365333557,0.02612193301320076,-0.019185451790690422,-1.862645149230957e-09,0.0,0.007731383200734854,0.22846625745296478,0.6786903538548283,-0.02309567853808403,0.3151429295539856,-0.015364296734333038,0.4030511677265167,3.858921766281128,0.9960296154022217,,,,,,,
9389200000.0,72.77,-0.6800000071525574,12495335936.0,1096.7734495045297,87.0,-0.006087745539844036,360448.0,837.1411671638489,7.006548119470324e-15,0.0,1.9055817127227783,-0.019055811688303947,0.03580823540687561,-0.019055817276239395,5.587935447692871e-09,0.0,-0.006345069035887718,0.26756995916366577,0.7042887853151387,-0.06507755070924759,0.4059204161167145,-0.07142262160778046,0.4920434355735779,3.734590768814087,0.9959704875946045,,,,,,,
9389200000.0,73.04,-0.9200000166893005,12495335936.0,1103.0827921305552,88.0,-0.00485638901591301,364544.0,840.8543970584869,6.926750839575391e-15,0.0,1.9928808212280273,-0.019928809255361557,0.043643172830343246,-0.019928807392716408,-9.313225746154785e-10,0.0,0.0017708198865875602,0.2954733967781067,0.6605769020386407,-0.08262932300567627,0.4236263334751129,-0.0808585062623024,0.5071631073951721,3.7132298946380615,0.995891809463501,,,,,,,
9389200000.0,72.97,-0.9700000286102295,12495335936.0,1109.7213482687375,89.0,-0.008596142753958702,368640.0,844.5454137325287,6.869504964868156e-15,0.0,1.9692094326019287,-0.019692108035087585,0.059887759387493134,-0.01969209313392639,-1.4901161193847656e-08,0.0,-0.03998563438653946,0.3438103199005127,0.6348227336793997,-0.06362660229206085,0.40468499064445496,-0.10361222922801971,0.5689407587051392,3.691016674041748,0.9960052967071533,,,,,,,
9389200000.0,72.93,-1.1699999570846558,12495335936.0,1074.8746074769547,90.0,-0.005992014426738024,372736.0,848.3560907840729,6.8833827526759706e-15,0.0,2.0020241737365723,-0.020020252093672752,0.05609382688999176,-0.020020240917801857,-1.1175870895385742e-08,0.0,-0.023302670568227768,0.3341734707355499,0.6435641897746285,-0.04923954978585243,0.4201446771621704,-0.0725422203540802,0.5597334504127502,3.8106770515441895,0.9959771633148193,,,,,,,
9389200000.0,73.61,-1.0499999523162842,12495335936.0,1076.0946376693491,91.0,-0.0067508285865187645,376832.0,852.1624474525452,7.256348300010984e-15,0.0,1.9188063144683838,-0.01918806880712509,0.05544855445623398,-0.019188063219189644,-5.587935447692871e-09,0.0,-0.043383195996284485,0.3302145004272461,0.7089825264108396,-0.10246644914150238,0.41739746928215027,-0.14584964513778687,0.6121200919151306,3.80635666847229,0.9962666034698486,,,,,,,
9389200000.0,71.89,-1.059999942779541,12495335936.0,1084.3202490395836,92.0,-0.010261615738272667,380928.0,855.9399292469025,8.168812848374785e-15,0.0,1.8165054321289062,-0.018165048211812973,0.049271613359451294,-0.01816505379974842,5.587935447692871e-09,0.0,-0.05642561614513397,0.3088408410549164,0.7389786826950221,-0.09624607861042023,0.4276597499847412,-0.1526716947555542,0.6045005917549133,3.7774817943573,0.996196985244751,,,,,,,
9389200000.0,70.35,-1.75,12495335936.0,1091.6077588359585,93.0,-0.01215900294482708,385024.0,859.6921927928925,9.76302372279747e-15,0.0,1.6593478918075562,-0.01659349352121353,0.045732531696558,-0.016593478620052338,-1.4901161193847656e-08,0.0,-0.08138847351074219,0.29131031036376953,0.8282871745604028,-0.2036323845386505,0.5721427798271179,-0.2850208580493927,0.702998697757721,3.7522635459899902,0.9960179328918457,,,,,,,
9389200000.0,72.46,-1.090000033378601,12495335936.0,1083.0219684925203,94.0,-0.004392798990011215,389120.0,863.4742028713226,9.532305500492555e-15,0.0,1.7082264423370361,-0.01708225905895233,0.038247305899858475,-0.01708226464688778,5.122274160385132e-09,0.0,0.02190648578107357,0.275741308927536,0.8032242083443211,-0.16544464230537415,0.5328432321548462,-0.14353816211223602,0.6216071248054504,3.782010078430176,0.9964723587036133,,,,,,,
9389200000.0,74.02,-1.090000033378601,12495335936.0,1067.9945448561746,95.0,-0.009791405871510506,393216.0,867.3094284534454,9.672818102046676e-15,0.0,1.7475870847702026,-0.017475886270403862,0.05893106386065483,-0.017475871369242668,-1.4901161193847656e-08,0.0,0.008571869693696499,0.34324541687965393,0.8002035387049223,-0.27332252264022827,0.6659597158432007,-0.2647506594657898,0.767910897731781,3.8352255821228027,0.9961268901824951,,,,,,,
,,,,,,,,,,,,,,,,,,,,,,,,,,0.004973445553332567,0.07716897875070572,0.058800287544727325,0.004973445553332567,0.07716897875070572,0.058800287544727325,
,,,,,,,,,,,,,,,,,,,,,,,,,,0.003092896193265915,0.054639317095279694,0.04734329879283905,0.003092896193265915,0.054639317095279694,0.04734329879283905,
,,,,,,,,,,,,,,,,,,,,,,,,,,0.0027500528376549482,0.04715986177325249,0.04335249587893486,0.0027500528376549482,0.04715986177325249,0.04335249587893486,
,,,,,,,,,,,,,,,,,,,,,,,,,,0.0024789858143776655,0.04401936009526253,0.03931459039449692,0.0024789858143776655,0.04401936009526253,0.03931459039449692,
,,,,,,,,,,,,,,,,,,,,,,,,,,0.002043839544057846,0.0398004874587059,0.03660430386662483,0.002043839544057846,0.0398004874587059,0.03660430386662483,
,,,,,,,,,,,,,,,,,,,,,,,,,,0.0019598775543272495,0.03791316598653793,0.034952886402606964,0.0019598775543272495,0.03791316598653793,0.034952886402606964,
,,,,,,,,,,,,,,,,,,,,,,,,,,,,,,,,-1.36
9389768000.0,74.77,-1.1699999570846558,12293103616.0,15.945745174626694,96.0,-0.007414026651531458,397312.0,1124.1804592609406,7.42114703022878e-15,0.0,1.8022323846817017,-0.0180223248898983,0.04239422827959061,-0.01802232302725315,-1.862645149230957e-09,0.0,-0.00032213516533374786,0.29121994972229004,0.7637656972648169,-0.18522141873836517,0.4707515835762024,-0.18554356694221497,0.5991694331169128,256.8710308074951,0.9961445331573486,,,,,,,
9389768000.0,75.45,-0.9599999785423279,12495335936.0,1089.0016640046777,97.0,-0.004153745248913765,401408.0,1127.9417023658752,7.57380269611474e-15,0.0,1.7874866724014282,-0.01787487231194973,0.03181026130914688,-0.017874866724014282,-5.587935447692871e-09,0.0,0.015104858204722404,0.25180914998054504,0.8374507701286444,-0.1996147781610489,0.523574709892273,-0.18450991809368134,0.6245670318603516,3.7612431049346924,0.9960753917694092,,,,,,,
9389768000.0,74.77,-0.8999999761581421,12495335936.0,1073.8910948621858,98.0,-0.007303704507648945,405504.0,1131.7558693885803,7.353492814665685e-15,0.0,1.7084673643112183,-0.017084669321775436,0.039260923862457275,-0.017084673047065735,3.725290298461914e-09,0.0,0.03610151261091232,0.2779161334037781,0.8094806735520934,-0.21827425062656403,0.5636624693870544,-0.1821727454662323,0.6367138028144836,3.814167022705078,0.9960894584655762,,,,,,,
9389768000.0,76.24,-1.100000023841858,12495335936.0,1059.1271273559516,99.0,-0.00844840332865715,409600.0,1135.623204946518,7.478392904936015e-15,0.0,1.726344347000122,-0.017263442277908325,0.046144939959049225,-0.017263442277908325,0.0,0.0,0.0392877571284771,0.30127811431884766,0.834693488404866,-0.3420451879501343,0.6837652325630188,-0.3027574121952057,0.7410075664520264,3.867335557937622,0.996016263961792,,,,,,,
9389768000.0,75.28,-1.2599999904632568,12495335936.0,1049.1566093125389,100.0,-0.007067118771374226,413696.0,1139.5272932052612,6.751543768501733e-15,0.0,1.8990541696548462,-0.018990548327565193,0.035917479544878006,-0.018990540876984596,-7.450580596923828e-09,0.0,0.04817555844783783,0.263687402009964,0.8191037729816596,-0.22775815427303314,0.5581645369529724,-0.17958258092403412,0.6199756264686584,3.904088258743286,0.9961104393005371,,,,,,,
9389768000.0,73.63,-0.9900000095367432,12495335936.0,1084.4874680774453,101.0,-0.007709885481745005,417792.0,1143.3041925430298,6.708175681602313e-15,0.0,1.9367725849151611,-0.019367732107639313,0.04137229174375534,-0.019367724657058716,-7.450580596923828e-09,0.0,0.04675058647990227,0.28386378288269043,0.87591621333726,-0.3294928967952728,0.7871544361114502,-0.28274229168891907,0.805846631526947,3.7768993377685547,0.996267557144165,,,,,,,
9389768000.0,71.51,-1.3700000047683716,12495335936.0,1107.038997002144,102.0,-0.009862279519438744,421888.0,1147.0041525363922,6.879913305724017e-15,0.0,1.9093406200408936,-0.019093405455350876,0.03931964933872223,-0.019093405455350876,0.0,0.0,0.02468452975153923,0.27937257289886475,0.8540982105722579,-0.30588409304618835,0.6843312978744507,-0.28119954466819763,0.7313974499702454,3.6999599933624268,0.9959375858306885,,,,,,,
9389768000.0,70.97,-1.0800000429153442,12495335936.0,1068.7144576021324,103.0,-0.007341629359871149,425984.0,1150.8367946147919,6.279698983036042e-15,0.0,1.982563853263855,-0.019825637340545654,0.03756599500775337,-0.019825637340545654,0.0,0.0,0.07779639959335327,0.26286229491233826,0.8650843587679558,-0.29098883271217346,0.7151070833206177,-0.2131924331188202,0.715644121170044,3.832642078399658,0.9959506988525391,,,,,,,
9389768000.0,71.9,-0.9700000286102295,12495335936.0,1081.5523216880906,104.0,-0.005828251130878925,430080.0,1154.6239438056946,5.962244586932286e-15,0.0,2.0737416744232178,-0.0207374207675457,0.039349403232336044,-0.0207374170422554,-4.6566128730773926e-09,0.0,0.030972430482506752,0.27885210514068604,0.8507210127806498,-0.24275408685207367,0.6776579022407532,-0.21178165078163147,0.7217296957969666,3.78714919090271,0.9960243701934814,,,,,,,
9389768000.0,71.72,-1.0700000524520874,12495335936.0,1055.6287520806275,105.0,-0.00952132698148489,434176.0,1158.5040957927704,5.9674487573602164e-15,0.0,2.1230945587158203,-0.02123093605041504,0.03304285183548927,-0.021230945363640785,8.847564458847046e-09,0.0,0.01558779552578926,0.25662970542907715,0.8706357311767534,-0.25535082817077637,0.6511867046356201,-0.2397630512714386,0.7135095000267029,3.8801519870758057,0.9973559379577637,,,,,,,
9389768000.0,70.87,-1.0800000429153442,12495335936.0,1082.102077015643,106.0,-0.005213725380599499,438272.0,1162.2893209457397,6.25888230132432e-15,0.0,2.137937307357788,-0.021379366517066956,0.03199010714888573,-0.021379372105002403,5.587935447692871e-09,0.0,0.010865443386137486,0.2527404725551605,0.8003407742374264,-0.11701278388500214,0.47662949562072754,-0.10614733397960663,0.5656269788742065,3.7852251529693604,0.996058464050293,,,,,,,
9389768000.0,72.1,-1.0399999618530273,12495335936.0,1042.0670244659548,107.0,-0.00979702826589346,442368.0,1166.2199702262878,5.7592819402429996e-15,0.0,2.183011054992676,-0.021830115467309952,0.031624238938093185,-0.021830109879374504,-5.587935447692871e-09,0.0,-0.019013701006770134,0.2508033215999603,0.8570314725723438,-0.14699354767799377,0.550468921661377,-0.16600725054740906,0.6633046865463257,3.9306492805480957,0.9963643550872803,,,,,,,
9389768000.0,73.57,-1.0399999618530273,12495335936.0,1111.7089785160927,108.0,-0.005483461543917656,446464.0,1169.9043877124786,5.64479019082853e-15,0.0,2.181816577911377,-0.021818162873387337,0.019351525232195854,-0.021818164736032486,1.862645149230957e-09,0.0,-0.005837513133883476,0.19666829705238342,0.8916566446968645,-0.11125318706035614,0.5203460454940796,-0.11709069460630417,0.597493588924408,3.684417486190796,0.9961504936218262,,,,,,,
9389768000.0,73.66,-0.8199999928474426,12495335936.0,1095.491856250479,109.0,-0.006768461782485247,450560.0,1173.6433475017548,5.887651477465283e-15,0.0,2.2187228202819824,-0.022187231108546257,0.024323198944330215,-0.02218722738325596,-3.725290298461914e-09,0.0,-0.011813933029770851,0.22026954591274261,0.8777231189901208,-0.10444243252277374,0.518888533115387,-0.11625635623931885,0.6299155354499817,3.738959789276123,0.9961683750152588,,,,,,,
9389768000.0,72.93,-1.309999942779541,12495335936.0,1086.652890316293,110.0,-0.011885346844792366,454656.0,1177.4127204418182,5.990000162547915e-15,0.0,2.255356788635254,-0.022553566843271255,0.03927221894264221,-0.022553566843271255,0.0,0.0,-0.054912321269512177,0.27485907077789307,0.8646878108044527,-0.18649578094482422,0.6337988376617432,-0.2414080947637558,0.7472081780433655,3.7693729400634766,0.996140718460083,,,,,,,
9389768000.0,75.27,-1.3600000143051147,12495335936.0,1091.366991652567,111.0,-0.004354778677225113,458752.0,1181.1658117771149,5.618769338688878e-15,0.0,2.241270065307617,-0.022412702441215515,0.03545349836349487,-0.022412700578570366,-1.862645149230957e-09,0.0,0.009645641781389713,0.266141414642334,0.6386165455820683,-0.06604641675949097,0.4151173532009125,-0.05640077218413353,0.44271916151046753,3.753091335296631,0.9961895942687988,,,,,,,
9389768000.0,70.77,-0.6899999976158142,12495335936.0,1086.8219984569287,112.0,-0.005775772035121918,462848.0,1184.9345982074738,6.2901073238919025e-15,0.0,2.1627795696258545,-0.021627802401781082,0.036888331174850464,-0.021627794951200485,-7.450580596923828e-09,0.0,-0.03323899582028389,0.26961004734039307,0.7983707775355475,-0.11061292886734009,0.5511325597763062,-0.14385192096233368,0.6004257202148438,3.7687864303588867,0.9960381984710693,,,,,,,
9389768000.0,68.79,-0.949999988079071,12495335936.0,1073.72504704614,113.0,-0.00809948518872261,466944.0,1188.7493550777435,6.701236787698406e-15,0.0,2.1114304065704346,-0.021114306524395943,0.029354345053434372,-0.021114302799105644,-3.725290298461914e-09,0.0,-0.01993650384247303,0.2415066510438919,0.870549387870603,-0.09248048812150955,0.5975765585899353,-0.11241699755191803,0.6712387800216675,3.8147568702697754,0.9960165023803711,,,,,,,
9389768000.0,72.22,-0.5400000214576721,12495335936.0,1082.1981882806115,114.0,-0.0011590912472456694,471040.0,1192.5342440605164,6.690828446842545e-15,0.0,2.0764801502227783,-0.020764797925949097,0.029094353318214417,-0.020764801651239395,3.725290298461914e-09,0.0,0.011607157066464424,0.2409733533859253,0.7697118488162933,-0.026285523548722267,0.4384463429450989,-0.014678365550935268,0.5021497011184692,3.784888982772827,0.9961974620819092,,,,,,,
9389768000.0,72.92,-0.5099999904632568,12495335936.0,1081.3053521938423,115.0,-0.006705255247652531,475136.0,1196.322258234024,7.539108226595204e-15,0.0,1.9832520484924316,-0.019832512363791466,0.033772628754377365,-0.019832519814372063,7.450580596923828e-09,0.0,0.03429007530212402,0.2576541304588318,0.8919962613772093,-0.18967017531394958,0.8093159198760986,-0.15538008511066437,0.7840030789375305,3.7880141735076904,0.9959468841552734,,,,,,,
9389768000.0,72.51,-0.8899999856948853,12495335936.0,1053.9216418629208,116.0,-0.00684230076149106,479232.0,1200.2086951732635,7.750744490664374e-15,0.0,2.00719952583313,-0.020072001963853836,0.03310544416308403,-0.02007199451327324,-8.381903171539307e-09,0.0,0.0015131528489291668,0.25734174251556396,0.9013334005859951,-0.2359943389892578,0.8330557942390442,-0.23448117077350616,0.8192663788795471,3.886436939239502,0.9958846569061279,,,,,,,
9389768000.0,72.9,-1.3300000429153442,12495335936.0,1094.3733609914207,117.0,-0.011495494283735752,483328.0,1203.9514763355255,6.99787450209044e-15,0.0,2.0901200771331787,-0.020901210606098175,0.031276606023311615,-0.02090119943022728,-1.1175870895385742e-08,0.0,-0.016111275181174278,0.24961738288402557,0.903137278609833,-0.23139721155166626,0.7862077951431274,-0.24750849604606628,0.8020408749580383,3.742781162261963,0.9959802627563477,,,,,,,
9389768000.0,72.26,-1.2400000095367432,12495335936.0,1103.6060946757345,118.0,-0.006725141778588295,487424.0,1207.662945508957,7.013487013374231e-15,0.0,2.203040838241577,-0.022030405700206757,0.02639423869550228,-0.022030407562851906,1.862645149230957e-09,0.0,0.007652043364942074,0.22965802252292633,0.8776014638850302,-0.13297894597053528,0.6293270587921143,-0.12532690167427063,0.6564375758171082,3.7114691734313965,0.9962666034698486,,,,,,,
9389768000.0,72.74,-1.0,12495335936.0,1100.6095606542026,119.0,-0.008411739952862263,491520.0,1211.3845195770264,7.188694084447889e-15,0.0,2.2243096828460693,-0.02224310114979744,0.037980303168296814,-0.022243095561861992,-5.587935447692871e-09,0.0,0.01339605450630188,0.27531737089157104,0.8179189194854617,-0.1211671382188797,0.6347618699073792,-0.10777108371257782,0.6452102065086365,3.721574068069458,0.9965653419494629,,,,,,,
9389768000.0,72.47,-0.9200000166893005,12495335936.0,1102.2560159865552,120.0,-0.004793527536094189,495616.0,1215.1005346775055,6.555520015716354e-15,0.0,2.3224387168884277,-0.023224391043186188,0.03395736962556839,-0.02322438731789589,-3.725290298461914e-09,0.0,-0.006142768543213606,0.2605639696121216,0.7614549326006497,-0.05962652340531349,0.4273299276828766,-0.06576929241418839,0.5334935784339905,3.716015100479126,0.9962818622589111,,,,,,,
9389768000.0,73.52,-0.9100000262260437,12495335936.0,1112.8843307931998,121.0,-0.007655645254999399,499712.0,1218.7810609340668,5.9761223747401004e-15,0.0,2.386643171310425,-0.023866431787610054,0.045863643288612366,-0.023866431787610054,0.0,0.0,-0.015386488288640976,0.30251097679138184,0.719175413738669,-0.12406609952449799,0.5033741593360901,-0.13945259153842926,0.5708520412445068,3.6805262565612793,0.9962482452392578,,,,,,,
9389768000.0,73.65,-0.9100000262260437,12495335936.0,1100.026334498017,122.0,-0.005457165651023388,503808.0,1222.5046081542969,6.7480743215497796e-15,0.0,2.39866304397583,-0.023986633867025375,0.030157441273331642,-0.023986630141735077,-3.725290298461914e-09,0.0,-0.03985193371772766,0.2423655241727829,0.8916196006253085,-0.20122909545898438,0.6546244025230408,-0.24108099937438965,0.7361994981765747,3.7235472202301025,0.9960803985595703,,,,,,,
9389768000.0,71.58,-1.0399999618530273,12495335936.0,1083.832576242966,123.0,-0.009365128353238106,507904.0,1226.2837896347046,6.827871601444713e-15,0.0,2.432713031768799,-0.024327130988240242,0.06068753823637962,-0.024327129125595093,-1.862645149230957e-09,0.0,-0.015939757227897644,0.34806692600250244,0.8355722113117029,-0.2529779374599457,0.788054347038269,-0.26891767978668213,0.8583711385726929,3.779181480407715,0.9958128929138184,,,,,,,
9389768000.0,69.17,-0.8700000047683716,12495335936.0,1075.66060082551,124.0,-0.005862905643880367,512000.0,1230.0916821956635,6.813993813636898e-15,0.0,2.481503486633301,-0.02481503039598465,0.03836405277252197,-0.024815034121274948,3.725290298461914e-09,0.0,-0.021951302886009216,0.27616092562675476,0.7665611732451736,-0.09236723184585571,0.4500618577003479,-0.11431854963302612,0.5715782642364502,3.8078925609588623,0.9967072010040283,,,,,,,
9389768000.0,73.68,-0.7699999809265137,12495335936.0,1087.9281348970235,125.0,-0.007040857337415218,516096.0,1233.856636762619,7.164407955784213e-15,0.0,2.4390015602111816,-0.02439001575112343,0.04296480119228363,-0.02439001575112343,0.0,0.0,-0.0356237068772316,0.2910003960132599,0.7925846145115824,-0.11959877610206604,0.5074715614318848,-0.15522247552871704,0.6389591693878174,3.7649545669555664,0.9961624145507812,,,,,,,
9389768000.0,74.07,-0.9900000095367432,12495335936.0,1070.6797468415175,126.0,-0.005737157538533211,520192.0,1237.6822438240051,6.999609225566417e-15,0.0,2.4246952533721924,-0.024246945977211,0.027137814089655876,-0.024246951565146446,4.6566128730773926e-09,0.0,-0.001646520453505218,0.23299391567707062,0.8557701913404321,-0.10637570917606354,0.5242812633514404,-0.10802222788333893,0.6135035753250122,3.8256070613861084,0.9958217144012451,,,,,,,
9389768000.0,72.86,-0.7599999904632568,12495335936.0,1092.200837301015,127.0,-0.003657083259895444,524288.0,1241.4324698448181,8.3995310706797e-15,0.0,2.3947832584381104,-0.023947827517986298,0.027681726962327957,-0.023947831243276596,3.725290298461914e-09,0.0,0.008734089322388172,0.2351609617471695,0.8823074560115577,-0.12077625095844269,0.6418298482894897,-0.11204215884208679,0.6854735612869263,3.7502260208129883,0.9959163665771484,,,,,,,
,,,,,,,,,,,,,,,,,,,,,,,,,,0.009798665530979633,0.05124247074127197,0.03144301846623421,0.009798665530979633,0.05124247074127197,0.03144301846623421,
,,,,,,,,,,,,,,,,,,,,,,,,,,0.005171549040824175,0.031275223940610886,0.025639938190579414,0.005171549040824175,0.031275223940610886,0.025639938190579414,
,,,,,,,,,,,,,,,,,,,,,,,,,,0.0040093474090099335,0.025492176413536072,0.022291475906968117,0.0040093474090099335,0.025492176413536072,0.022291475906968117,
,,,,,,,,,,,,,,,,,,,,,,,,,,0.0037386512849479914,0.022800413891673088,0.020773546770215034,0.0037386512849479914,0.022800413891673088,0.020773546770215034,
,,,,,,,,,,,,,,,,,,,,,,,,,,0.003159348852932453,0.020427566021680832,0.018568603321909904,0.003159348852932453,0.020427566021680832,0.018568603321909904,
,,,,,,,,,,,,,,,,,,,,,,,,,,0.002913400297984481,0.019074948504567146,0.01713409833610058,0.002913400297984481,0.019074948504567146,0.01713409833610058,
,,,,,,,,,,,,,,,,,,,,,,,,,,,,,,,,-0.96
9389848000.0,73.07,-0.6200000047683716,12293103616.0,16.00921198318136,128.0,-0.006405510939657688,528384.0,1497.2851629257202,6.881648029199994e-15,0.0,2.380451202392578,-0.023804515600204468,0.03513672947883606,-0.02380451187491417,-3.259629011154175e-09,0.0,0.023154431954026222,0.2641105055809021,0.8821442333961022,-0.22246085107326508,0.7552225589752197,-0.1993063986301422,0.7693256735801697,255.8526930809021,0.9960830211639404,,,,,,,
9389848000.0,73.51,-1.090000033378601,12495335936.0,1098.8672168762728,129.0,-0.008760681375861168,532480.0,1501.0126378536224,6.782768791069316e-15,0.0,2.434919595718384,-0.024349195882678032,0.04527409374713898,-0.024349195882678032,0.0,0.0,-0.025335393846035004,0.29988041520118713,0.8447950466998518,-0.23064205050468445,0.7284727692604065,-0.25597745180130005,0.7611939311027527,3.7274749279022217,0.9955568313598633,,,,,,,
9389848000.0,71.27,-1.2300000190734863,12495335936.0,1110.5015778227398,130.0,-0.008898084983229637,536576.0,1504.7010612487793,7.0811412289373266e-15,0.0,2.454799175262451,-0.024547994136810303,0.0625014677643776,-0.024547990411520004,-3.725290298461914e-09,0.0,-0.008096686564385891,0.35350796580314636,0.7890141672514217,-0.16602079570293427,0.7176139950752258,-0.17411747574806213,0.7696133255958557,3.6884233951568604,0.9959301948547363,,,,,,,
9389848000.0,71.72,-1.190000057220459,12495335936.0,1091.580431410104,131.0,-0.007849214598536491,540672.0,1508.4534187316895,7.318798345146149e-15,0.0,2.440619468688965,-0.0244061928242445,0.05374304950237274,-0.02440619468688965,1.862645149230957e-09,0.0,0.003984473645687103,0.3278665542602539,0.7999835571441655,-0.20840226113796234,0.6897268295288086,-0.20441779494285583,0.7331016659736633,3.7523574829101562,0.99609375,,,,,,,
9389848000.0,73.21,-1.1200000047683716,12495335936.0,1095.3859660733813,132.0,-0.007461788132786751,544768.0,1512.1927399635315,7.20951076615961e-15,0.0,2.4519593715667725,-0.024519598111510277,0.030307302251458168,-0.02451959252357483,-5.587935447692871e-09,0.0,0.02181677147746086,0.24526172876358032,0.9199952239668071,-0.2765945792198181,0.8631579875946045,-0.25477781891822815,0.8671053051948547,3.739321231842041,0.9954149723052979,,,,,,,
9389848000.0,75.09,-0.8399999737739563,12495335936.0,1109.7652908637522,133.0,-0.005768067203462124,548864.0,1515.8836104869843,7.0915495697931874e-15,0.0,2.4334335327148438,-0.02433432824909687,0.037199102342128754,-0.024334335699677467,7.450580596923828e-09,0.0,0.005687413737177849,0.2727343440055847,0.8873243807578408,-0.2964537739753723,0.7844981551170349,-0.2907663583755493,0.8125027418136597,3.690870523452759,0.9956986904144287,,,,,,,
9389848000.0,74.16,-0.8500000238418579,12495335936.0,1119.640871738948,134.0,-0.008126946166157722,552960.0,1519.5419263839722,7.04124258898986e-15,0.0,2.4130852222442627,-0.02413085103034973,0.033989422023296356,-0.02413085103034973,0.0,0.0,0.023271096870303154,0.2597186267375946,0.8767682600146173,-0.19167830049991608,0.6609073877334595,-0.16840720176696777,0.7398468255996704,3.658315896987915,0.9955253601074219,,,,,,,
9389848000.0,72.48,-1.399999976158142,12495335936.0,1079.2581823847138,135.0,-0.009440340101718903,557056.0,1523.3371257781982,6.935424456955275e-15,0.0,2.422086477279663,-0.024220868945121765,0.04427453875541687,-0.024220863357186317,-4.6566128730773926e-09,0.0,0.009600413031876087,0.297453373670578,0.8434668302165182,-0.20921961963176727,0.6755174994468689,-0.19961920380592346,0.7518231272697449,3.795199394226074,0.9957325458526611,,,,,,,
9389848000.0,72.01,-1.399999976158142,12495335936.0,1089.5172161519683,136.0,-0.009445504285395145,561152.0,1527.09658908844,6.824402154492759e-15,0.0,2.395911693572998,-0.023959117010235786,0.04159720987081528,-0.023959117010235786,0.0,0.0,-0.019539427012205124,0.28780698776245117,0.8820046074024039,-0.3047637939453125,0.752585232257843,-0.3243032395839691,0.83785480260849,3.759463310241699,0.9957568645477295,,,,,,,
9389848000.0,75.92,-1.159999966621399,12495335936.0,1083.4923067045727,137.0,-0.005517181474715471,565248.0,1530.8769574165344,7.233796894823286e-15,0.0,2.3735013008117676,-0.023735012859106064,0.035881154239177704,-0.023735012859106064,0.0,0.0,0.011570073664188385,0.2676675617694855,0.8673802671957371,-0.23819613456726074,0.694267749786377,-0.22662606835365295,0.7350074052810669,3.7803683280944824,0.9953231811523438,,,,,,,
9389848000.0,74.69,-0.8199999928474426,12495335936.0,1122.2990021980374,138.0,-0.005916735157370567,569344.0,1534.5266087055206,7.728193085476676e-15,0.0,2.3478450775146484,-0.02347845397889614,0.024245522916316986,-0.023478450253605843,-3.725290298461914e-09,0.0,0.0007592272013425827,0.22023239731788635,0.9190539961112757,-0.2216739058494568,0.7265899181365967,-0.22091466188430786,0.7740758061408997,3.649651288986206,0.9957499504089355,,,,,,,
9389848000.0,71.79,-0.8199999928474426,12495335936.0,1098.8459908285956,139.0,-0.004870221018791199,573440.0,1538.2541556358337,7.870440410506774e-15,0.0,2.2890686988830566,-0.022890685126185417,0.023338131606578827,-0.022890686988830566,1.862645149230957e-09,0.0,0.007767361123114824,0.21593360602855682,0.8765738622864635,-0.14756432175636292,0.5704836249351501,-0.13979695737361908,0.614634096622467,3.7275469303131104,0.9953854084014893,,,,,,,
9389848000.0,72.9,-0.7799999713897705,12495335936.0,1099.518312847342,140.0,-0.009216012433171272,577536.0,1541.9794232845306,8.14973089013904e-15,0.0,2.2787725925445557,-0.022787723690271378,0.04784896969795227,-0.022787725552916527,9.313225746154785e-10,0.0,-0.014253471046686172,0.3090600073337555,0.8870119016823103,-0.2880252003669739,0.8191571235656738,-0.30227866768836975,0.9194465279579163,3.7252676486968994,0.9955620765686035,,,,,,,
9389848000.0,70.8,-1.4900000095367432,12495335936.0,1118.9587367471909,141.0,-0.009865181520581245,581632.0,1545.6399693489075,8.095954462383759e-15,0.0,2.2237792015075684,-0.022237788885831833,0.035271137952804565,-0.022237790748476982,1.862645149230957e-09,0.0,0.002212344203144312,0.2656211853027344,0.890441569351386,-0.1939467340707779,0.7298763394355774,-0.19173438847064972,0.802490234375,3.660546064376831,0.9953746795654297,,,,,,,
9389848000.0,70.93,-0.8899999856948853,12495335936.0,1099.1486449274992,142.0,-0.006061095744371414,585728.0,1549.3664898872375,8.36136715420821e-15,0.0,2.239469528198242,-0.02239469438791275,0.04039792716503143,-0.02239469438791275,0.0,0.0,0.011956299655139446,0.2840292453765869,0.8471789086807592,-0.20331737399101257,0.691948413848877,-0.19136106967926025,0.7265597581863403,3.726520538330078,0.9957923889160156,,,,,,,
9389848000.0,73.4,-0.9399999976158142,12495335936.0,1119.3572406317783,143.0,-0.006457996089011431,589824.0,1553.025732755661,8.359632430732233e-15,0.0,2.2007761001586914,-0.02200774848461151,0.030719706788659096,-0.022007759660482407,1.1175870895385742e-08,0.0,0.01846352033317089,0.2472113072872162,0.9109182120986666,-0.25046414136886597,0.7915114164352417,-0.23200058937072754,0.8282736539840698,3.659242868423462,0.997610330581665,,,,,,,
9389848000.0,74.15,-0.6800000071525574,12495335936.0,1109.5833065730976,144.0,-0.005409758538007736,593920.0,1556.717208623886,8.911274496092858e-15,0.0,2.2126030921936035,-0.02212601527571678,0.028559785336256027,-0.022126030176877975,1.4901161193847656e-08,0.0,-0.010655947960913181,0.23878850042819977,0.8814877878942745,-0.18725912272930145,0.623656153678894,-0.19791507720947266,0.6936363577842712,3.6914758682250977,0.9958314895629883,,,,,,,
9389848000.0,75.3,-0.6700000166893005,12495335936.0,1097.1352153453984,145.0,-0.0029065378475934267,598016.0,1560.4505679607391,8.883518920477229e-15,0.0,2.1921420097351074,-0.021921416744589806,0.01963069662451744,-0.021921420469880104,3.725290298461914e-09,0.0,0.0038333446718752384,0.1981319934129715,0.8519209437220838,-0.05612443387508392,0.5102667212486267,-0.05229109525680542,0.5148820877075195,3.7333593368530273,0.9957563877105713,,,,,,,
9389848000.0,74.45,-0.6899999976158142,12495335936.0,1083.595226291475,146.0,-0.0058208853006362915,602112.0,1564.2305772304535,1.030078800035028e-14,0.0,2.0794174671173096,-0.020794175565242767,0.021195434033870697,-0.020794173702597618,-1.6298145055770874e-09,0.0,0.0014869903679937124,0.20591020584106445,0.9130436250713269,-0.17846034467220306,0.6793442368507385,-0.176973357796669,0.6982760429382324,3.7800092697143555,0.9958839416503906,,,,,,,
9389848000.0,72.66,-0.6700000166893005,12495335936.0,1043.1192967792324,147.0,-0.004240265116095543,606208.0,1568.1572613716125,1.0637324354689781e-14,0.0,2.0966286659240723,-0.020966295152902603,0.028648994863033295,-0.020966285839676857,-1.0244548320770264e-08,0.0,0.0010496448958292603,0.23939691483974457,0.865519363629067,-0.1516505479812622,0.627265453338623,-0.15060091018676758,0.6528128385543823,3.9266841411590576,0.9957611560821533,,,,,,,
9389848000.0,73.67,-0.6600000262260437,12495335936.0,1081.622457624851,148.0,-0.004912066739052534,610304.0,1571.9441649913788,1.033374774639384e-14,0.0,2.056938409805298,-0.02056938037276268,0.019648125395178795,-0.02056938409805298,3.725290298461914e-09,0.0,-0.009992867708206177,0.19800496101379395,0.8889812831234094,-0.11603058129549026,0.5562943816184998,-0.12602344155311584,0.5942620038986206,3.7869036197662354,0.9962015151977539,,,,,,,
9389848000.0,75.35,-0.47999998927116394,12495335936.0,1104.6129246740193,149.0,-0.0025279587134718895,614400.0,1575.6522512435913,1.0777836956243902e-14,0.0,2.0886459350585938,-0.020886465907096863,0.015204597264528275,-0.020886458456516266,-7.450580596923828e-09,0.0,-0.013601858168840408,0.17387226223945618,0.8742933170195568,-0.06389201432466507,0.45562446117401123,-0.07749387621879578,0.4904007613658905,3.7080862522125244,0.9955532550811768,,,,,,,
9389848000.0,75.61,-0.3799999952316284,12495335936.0,1109.580225037242,150.0,-0.003464840119704604,618496.0,1579.3437373638153,1.0149867057940298e-14,0.0,2.178658962249756,-0.021786577999591827,0.02850666269659996,-0.021786589175462723,1.1175870895385742e-08,0.0,-0.001558195799589157,0.23879870772361755,0.8389882663541481,-0.14053907990455627,0.5684772729873657,-0.14209726452827454,0.5951182246208191,3.691486120223999,0.9956276416778564,,,,,,,
9389848000.0,75.19,-0.5600000023841858,12495335936.0,1116.3465626173497,151.0,-0.0041375490836799145,622592.0,1583.012848854065,1.0061396160665481e-14,0.0,2.1825408935546875,-0.02182539366185665,0.019601568579673767,-0.021825408563017845,1.4901161193847656e-08,0.0,-0.004699403420090675,0.19796620309352875,0.8735834679668035,-0.08416101336479187,0.5287522673606873,-0.088860422372818,0.5567870736122131,3.669111490249634,0.9955611228942871,,,,,,,
9389848000.0,72.6,-0.9900000095367432,12495335936.0,1117.2856583002274,152.0,-0.008674503304064274,626688.0,1586.678876399994,1.1031106583736516e-14,0.0,2.1701393127441406,-0.0217013880610466,0.02000545710325241,-0.0217013917863369,3.725290298461914e-09,0.0,-0.018386172130703926,0.19920480251312256,0.9371437584873721,-0.20764033496379852,0.7484349608421326,-0.2260265201330185,0.7945579886436462,3.666027545928955,0.99564528465271,,,,,,,
9389848000.0,72.19,-1.0700000524520874,12495335936.0,1111.5364244460682,153.0,-0.0056098708882927895,630784.0,1590.363865852356,1.0972125985553305e-14,0.0,2.194746971130371,-0.021947462111711502,0.025943590328097343,-0.0219474695622921,7.450580596923828e-09,0.0,0.022164886817336082,0.22673434019088745,0.915723897513061,-0.21848665177822113,0.7881572246551514,-0.1963217705488205,0.781025230884552,3.6849894523620605,0.9954948425292969,,,,,,,
9389848000.0,73.9,-0.6399999856948853,12495335936.0,1113.873430596793,154.0,-0.002539350651204586,634880.0,1594.041123867035,1.102937186026054e-14,0.0,2.1874094009399414,-0.021874088793992996,0.024147680029273033,-0.021874094381928444,4.6566128730773926e-09,0.0,0.02750151976943016,0.21806107461452484,0.9039641153390986,-0.14213275909423828,0.6509142518043518,-0.11463123559951782,0.7036575675010681,3.677258014678955,0.9957418441772461,,,,,,,
9389848000.0,73.55,-0.20000000298023224,12495335936.0,1091.3705274987128,155.0,-0.00040146813262254,638976.0,1597.794203042984,1.1804793254022172e-14,0.0,2.248502731323242,-0.022485023364424706,0.0631214901804924,-0.022485027089715004,3.725290298461914e-09,0.0,0.04313167557120323,0.35272228717803955,0.5732846686569877,-0.11139830946922302,0.5248414874076843,-0.06826663017272949,0.5399627089500427,3.7530791759490967,0.9960746765136719,,,,,,,
9389848000.0,72.39,-0.05999999865889549,12495335936.0,1101.105676441671,156.0,-0.0012065243208780885,643072.0,1601.5141003131866,1.0829878660523207e-14,0.0,2.235724925994873,-0.02235725335776806,0.03192596882581711,-0.02235724963247776,-3.725290298461914e-09,0.0,0.02708568423986435,0.2512642443180084,0.7855030215748705,-0.06079820916056633,0.4867425262928009,-0.03371252492070198,0.5425254106521606,3.7198972702026367,0.9956839084625244,,,,,,,
9389848000.0,72.7,-0.3400000035762787,12495335936.0,1110.394919290544,157.0,-0.0044299280270934105,647168.0,1605.202877998352,1.0722325805012645e-14,0.0,2.291841983795166,-0.022918418049812317,0.05501575767993927,-0.022918419912457466,1.3969838619232178e-09,0.0,-0.035896509885787964,0.3298022150993347,0.6967139355582563,-0.11313743889331818,0.42099693417549133,-0.14903394877910614,0.5988628268241882,3.6887776851654053,0.9953789710998535,,,,,,,
9389848000.0,71.2,-0.7599999904632568,12495335936.0,1102.074435751875,158.0,-0.006049823947250843,651264.0,1608.9195053577423,1.0930492622129862e-14,0.0,2.3121578693389893,-0.02312157116830349,0.03950808197259903,-0.023121578618884087,7.450580596923828e-09,0.0,-0.02607959508895874,0.27991992235183716,0.7862347052529729,-0.1307079941034317,0.5178334712982178,-0.15678757429122925,0.6054316759109497,3.716627359390259,0.9960486888885498,,,,,,,
9389848000.0,76.01,-0.47999998927116394,12495335936.0,1090.4195871315037,159.0,-0.000538658641744405,655360.0,1612.6758575439453,1.0975595432505258e-14,0.0,2.3523411750793457,-0.023523405194282532,0.03966955840587616,-0.02352341078221798,5.587935447692871e-09,0.0,0.018820589408278465,0.2810768187046051,0.47498185542504767,-0.02261974662542343,0.2837821841239929,-0.0037991555873304605,0.3879161775112152,3.756352186203003,0.9956607818603516,,,,,,,
,,,,,,,,,,,,,,,,,,,,,,,,,,0.012390433810651302,0.05075715854763985,0.04164548218250275,0.012390433810651302,0.05075715854763985,0.04164548218250275,
,,,,,,,,,,,,,,,,,,,,,,,,,,0.008356204256415367,0.03835666552186012,0.036093566566705704,0.008356204256415367,0.03835666552186012,0.036093566566705704,
,,,,,,,,,,,,,,,,,,,,,,,,,,0.005785337183624506,0.03202970325946808,0.028670785948634148,0.005785337183624506,0.03202970325946808,0.028670785948634148,
,,,,,,,,,,,,,,,,,,,,,,,,,,0.00539906183257699,0.029443299397826195,0.02666754275560379,0.00539906183257699,0.029443299397826195,0.02666754275560379,
,,,,,,,,,,,,,,,,,,,,,,,,,,0.004680595360696316,0.026991184800863266,0.023709477856755257,0.004680595360696316,0.026991184800863266,0.023709477856755257,
,,,,,,,,,,,,,,,,,,,,,,,,,,0.004282334353774786,0.024654962122440338,0.02262212708592415,0.004282334353774786,0.024654962122440338,0.02262212708592415,
,,,,,,,,,,,,,,,,,,,,,,,,,,,,,,,,-0.31
9389848000.0,74.53,-0.07000000029802322,12293103616.0,15.988955586711775,160.0,-0.0013489810517057776,659456.0,1868.8526902198792,8.930356454328603e-15,0.0,2.3366198539733887,-0.02336619794368744,0.04321049526333809,-0.02336619794368744,0.0,0.0,0.014351198449730873,0.2936598062515259,0.7878734113468489,-0.09698910266160965,0.5687519311904907,-0.08263789117336273,0.6375980377197266,256.17683267593384,0.9960525035858154,,,,,,,
9389848000.0,70.43,-0.47999998927116394,12495335936.0,1095.3067713680805,161.0,-0.004588969051837921,663552.0,1872.59228181839,9.598224992579674e-15,0.0,2.290600538253784,-0.02290601283311844,0.03759763389825821,-0.022906005382537842,-7.450580596923828e-09,0.0,0.006622184067964554,0.27417105436325073,0.8378957194730379,-0.12275297939777374,0.6178529858589172,-0.11613079905509949,0.6809642910957336,3.739591598510742,0.9962618350982666,,,,,,,
9389848000.0,73.22,-0.3400000035762787,12495335936.0,1067.7693893916116,162.0,-0.0005408963770605624,667648.0,1876.428316116333,1.0363238045485446e-14,0.0,2.2628493309020996,-0.022628502920269966,0.05841542407870293,-0.02262849360704422,-9.313225746154785e-09,0.0,0.06268506497144699,0.3360491096973419,0.6615095208273793,-0.1794264316558838,0.6440773010253906,-0.11674138158559799,0.5776031017303467,3.8360342979431152,0.9962422847747803,,,,,,,
9389848000.0,74.78,-0.3199999928474426,12495335936.0,1093.408414446441,163.0,-0.0035205227322876453,671744.0,1880.1744003295898,1.0111703141468809e-14,0.0,2.23195219039917,-0.02231951616704464,0.06014592945575714,-0.022319521754980087,5.587935447692871e-09,0.0,0.05413585156202316,0.3426220118999481,0.7217886977250241,-0.15054738521575928,0.7333819270133972,-0.09641152620315552,0.6495728492736816,3.746084213256836,0.9961850643157959,,,,,,,
9389848000.0,72.01,-0.44999998807907104,12495335936.0,1074.9808065658676,164.0,-0.0025774044916033745,675840.0,1883.9847009181976,1.10397802011164e-14,0.0,2.225393295288086,-0.022253917530179024,0.05524323508143425,-0.022253932431340218,1.4901161193847656e-08,0.0,-0.008089452981948853,0.3323371708393097,0.6685440197807418,-0.12567748129367828,0.6066133379936218,-0.13376694917678833,0.5772527456283569,3.810300588607788,0.996074914932251,,,,,,,
9389848000.0,73.09,-0.2199999988079071,12495335936.0,1075.148857870935,165.0,-0.00013585900887846947,679936.0,1887.7944059371948,1.1431827706687159e-14,0.0,2.2189157009124756,-0.022189144045114517,0.05682043731212616,-0.022189157083630562,1.30385160446167e-08,0.0,0.06600229442119598,0.33062252402305603,0.5427207944530483,-0.07505969703197479,0.5584925413131714,-0.009057408198714256,0.48892438411712646,3.8097050189971924,0.996375322341919,,,,,,,
9389848000.0,74.63,-0.20000000298023224,12495335936.0,1110.5111249757276,166.0,-0.002313653938472271,684032.0,1891.4827976226807,1.0021497520718015e-14,0.0,2.2518229484558105,-0.022518226876854897,0.02581978589296341,-0.022518228739500046,1.862645149230957e-09,0.0,0.0031876147259026766,0.22724881768226624,0.8267970624857613,-0.0597115233540535,0.4419099688529968,-0.05652391165494919,0.5460394620895386,3.68839168548584,0.9960489273071289,,,,,,,
9389848000.0,75.58,-0.44999998807907104,12495335936.0,1098.3696045698662,167.0,-0.004089329857379198,688128.0,1895.2119612693787,1.090447176999021e-14,0.0,2.240309715270996,-0.022403085604310036,0.04509132727980614,-0.02240309678018093,1.1175870895385742e-08,0.0,-0.03343559056520462,0.2984735369682312,0.6830125620449913,-0.06454239785671234,0.39932990074157715,-0.09797799587249756,0.5301329493522644,3.729163646697998,0.9959702491760254,,,,,,,
9389848000.0,77.54,-0.4399999976158142,12495335936.0,1088.7249244556667,168.0,-0.002865550806745887,692224.0,1898.9741604328156,1.2080614286702485e-14,0.0,2.2146897315979004,-0.02214689366519451,0.05320665240287781,-0.02214689739048481,3.259629011154175e-09,0.0,0.01235628966242075,0.32601621747016907,0.5659456418754762,-0.017298391088843346,0.36027830839157104,-0.004942102357745171,0.49484267830848694,3.7621991634368896,0.9961264133453369,,,,,,,
9389848000.0,76.02,-0.15000000596046448,12495335936.0,1078.2085725639895,169.0,0.0006835022941231728,696320.0,1902.7730543613434,1.0890593982182395e-14,0.0,2.2809696197509766,-0.022809697315096855,0.033024728298187256,-0.022809695452451706,-1.862645149230957e-09,0.0,0.026802001520991325,0.2556307017803192,0.5199403149031365,0.00873525720089674,0.34245765209198,0.03553725779056549,0.36894819140434265,3.798893928527832,0.9961845874786377,,,,,,,
9389848000.0,77.76,-0.17000000178813934,12495335936.0,1107.6662489783184,170.0,-0.0036959799472242594,700416.0,1906.4709191322327,1.1506420816154161e-14,0.0,2.281935214996338,-0.02281934954226017,0.046356722712516785,-0.02281935140490532,1.862645149230957e-09,0.0,-0.043276529759168625,0.3014345169067383,0.6882485915173893,-0.03276349976658821,0.3722797632217407,-0.07604002952575684,0.539869487285614,3.6978647708892822,0.9959723949432373,,,,,,,
9389848000.0,79.43,-0.47999998927116394,12495335936.0,1069.9863724551274,171.0,-0.0038371318951249123,704512.0,1910.2990052700043,1.1565401414337373e-14,0.0,2.2794504165649414,-0.022794507443904877,0.055881284177303314,-0.022794503718614578,-3.725290298461914e-09,0.0,-0.04761597886681557,0.3309411108493805,0.47115565457786956,0.0367920957505703,0.2619079649448395,-0.010823879390954971,0.45507901906967163,3.8280861377716064,0.9963080883026123,,,,,,,
9389848000.0,77.11,-0.6499999761581421,12495335936.0,1064.1345512377875,172.0,-0.004936139099299908,708608.0,1914.1481425762177,1.2380721448046472e-14,0.0,2.2675843238830566,-0.02267584204673767,0.07743431627750397,-0.02267584204673767,0.0,0.0,-0.04557490721344948,0.3909333050251007,0.48913620799429836,0.042952846735715866,0.2859979569911957,-0.002622060477733612,0.5469531416893005,3.849137306213379,0.9959650039672852,,,,,,,
9389848000.0,75.05,-0.3400000035762787,12495335936.0,1063.2136827607376,173.0,0.0008240563329309225,712704.0,1918.0006136894226,1.2210718547400745e-14,0.0,2.260814666748047,-0.02260814607143402,0.06375546753406525,-0.02260814607143402,0.0,0.0,-0.018076986074447632,0.35667240619659424,0.20346083552525307,0.07526982575654984,0.2403153032064438,0.0571928471326828,0.39963725209236145,3.852471113204956,0.996523380279541,,,,,,,
9389848000.0,74.93,0.009999999776482582,12495335936.0,1057.7553720744422,174.0,0.0009630214190110564,716800.0,1921.8729646205902,1.149080830487037e-14,0.0,2.2697274684906006,-0.022697271779179573,0.02571014128625393,-0.022697273641824722,1.862645149230957e-09,0.0,-0.0075017232447862625,0.2266639620065689,0.6090461501884238,0.06450933963060379,0.24620385468006134,0.05700761824846268,0.36250975728034973,3.8723509311676025,0.9963939189910889,,,,,,,
9389848000.0,77.61,0.0,12495335936.0,1109.58352156461,175.0,-0.0016533508896827698,720896.0,1925.5644397735596,1.1723261250651262e-14,0.0,2.278526544570923,-0.022785261273384094,0.046539366245269775,-0.022785264998674393,3.725290298461914e-09,0.0,-0.01804296299815178,0.30459123849868774,0.47335690560939336,0.033608078956604004,0.2631012797355652,0.015565114095807076,0.41971954703330994,3.6914751529693604,0.9965717792510986,,,,,,,
9389848000.0,81.34,-0.2199999988079071,12495335936.0,1100.8314983225328,176.0,-0.003173595294356346,724992.0,1929.2852635383606,1.1863773852205384e-14,0.0,2.3097620010375977,-0.023097621276974678,0.06685704737901688,-0.02309761941432953,-1.862645149230957e-09,0.0,-0.040603555738925934,0.3634524345397949,0.39311594604663236,0.05703981965780258,0.252482146024704,0.016436265781521797,0.46654629707336426,3.7208237648010254,0.9960274696350098,,,,,,,
9389848000.0,78.88,-0.36000001430511475,12495335936.0,1073.401488640508,177.0,-0.001519717974588275,729088.0,1933.1011703014374,1.0567935415650709e-14,0.0,2.33955717086792,-0.023395560681819916,0.06265417486429214,-0.02339557185769081,1.1175870895385742e-08,0.0,-0.04351659119129181,0.3513471186161041,0.28338723826244394,0.034184202551841736,0.19229170680046082,-0.009332390502095222,0.4150439500808716,3.8159067630767822,0.9964032173156738,,,,,,,
9389848000.0,79.15,-0.14000000059604645,12495335936.0,1085.3051397802171,178.0,-0.0002767246915027499,733184.0,1936.8752241134644,1.0418749196716703e-14,0.0,2.385451078414917,-0.023854510858654976,0.04840473085641861,-0.023854510858654976,0.0,0.0,-0.011376319453120232,0.31097209453582764,0.3681975429770815,0.010418309830129147,0.2296581268310547,-0.000958009622991085,0.3912287950515747,3.7740538120269775,0.9961745738983154,,,,,,,
9389848000.0,80.87,-0.10000000149011612,12495335936.0,1067.5102330147763,179.0,0.00013856141595169902,737280.0,1940.7121896743774,1.0111703141468809e-14,0.0,2.404977798461914,-0.024049777537584305,0.04195885360240936,-0.024049777537584305,0.0,0.0,0.013083360157907009,0.2894252836704254,0.2666056298399422,0.0030026682652533054,0.1754954606294632,0.016086028888821602,0.3379618525505066,3.836965560913086,0.9961977005004883,,,,,,,
9389848000.0,76.96,-0.10999999940395355,12495335936.0,1078.0541754586063,180.0,-0.002497577341273427,741376.0,1944.5116276741028,9.445569326693715e-15,0.0,2.4060776233673096,-0.024060772731900215,0.04944197088479996,-0.024060776457190514,3.725290298461914e-09,0.0,-0.024511508643627167,0.31353965401649475,0.526417775357914,0.001215814147144556,0.2540184557437897,-0.02329569309949875,0.45561161637306213,3.799437999725342,0.9960534572601318,,,,,,,
9389848000.0,75.24,-0.05000000074505806,12495335936.0,1097.9367823893178,181.0,-1.1641532182693481e-10,745472.0,1948.2422614097595,1.0687631335493109e-14,0.0,2.3630573749542236,-0.023630568757653236,0.04741144925355911,-0.023630572482943535,3.725290298461914e-09,0.0,0.017773713916540146,0.30745741724967957,0.2498875728315565,-0.0008442748803645372,0.17632442712783813,0.016929440200328827,0.35499468445777893,3.7306337356567383,0.9959752559661865,,,,,,,
9389848000.0,77.31,0.019999999552965164,12495335936.0,1100.322239571181,182.0,0.0008351217838935554,749568.0,1951.9648072719574,9.346690088563037e-15,0.0,2.3975725173950195,-0.023975713178515434,0.029811643064022064,-0.02397572435438633,1.1175870895385742e-08,0.0,0.009821616113185883,0.24401096999645233,0.4775159343016542,-0.03658630698919296,0.20942719280719757,-0.02676469087600708,0.3375769853591919,3.722545862197876,0.9961802959442139,,,,,,,
9389848000.0,77.41,0.03999999910593033,12495335936.0,1112.1988808008928,183.0,0.0004181151743978262,753664.0,1955.6476018428802,1.0755285551056204e-14,0.0,2.3588318824768066,-0.023588325828313828,0.03966277837753296,-0.02358831837773323,-6.51925802230835e-09,0.0,0.020315565168857574,0.28094857931137085,0.5206970268946806,-0.014502665027976036,0.2382269948720932,0.005812899675220251,0.40580910444259644,3.6827945709228516,0.995999813079834,,,,,,,
9389848000.0,76.46,0.03999999910593033,12495335936.0,1099.0046437457843,184.0,0.0008374060271307826,757760.0,1959.3746106624603,1.0240072678691092e-14,0.0,2.3365180492401123,-0.02336518093943596,0.032395072281360626,-0.02336517907679081,-2.3283064365386963e-09,0.0,0.010225006379187107,0.25436466932296753,0.6686791612323653,-0.06442128121852875,0.2779636085033417,-0.05419626832008362,0.441908597946167,3.727008819580078,0.996166467666626,,,,,,,
9389848000.0,74.54,-0.1599999964237213,12495335936.0,1084.201796355565,185.0,-0.001397879095748067,761856.0,1963.152505159378,9.764758446273447e-15,0.0,2.325960636138916,-0.02325960248708725,0.03660096600651741,-0.023259606212377548,3.725290298461914e-09,0.0,0.0004581292159855366,0.27059119939804077,0.6158334404122267,-0.06583967059850693,0.2724262475967407,-0.06538154184818268,0.4365699887275696,3.7778944969177246,0.9960441589355469,,,,,,,
9389848000.0,72.91,-0.12999999523162842,12495335936.0,1118.0410563681155,186.0,-0.0015394709771499038,765952.0,1966.8160557746887,9.544448564824393e-15,0.0,2.295743942260742,-0.022957436740398407,0.03719429671764374,-0.022957438603043556,9.313225746154785e-10,0.0,-0.011344652622938156,0.2725399434566498,0.6817733318919816,-0.07235510647296906,0.34333336353302,-0.08369976282119751,0.4831276535987854,3.663550615310669,0.9964134693145752,,,,,,,
9389848000.0,71.44,-0.3799999952316284,12495335936.0,1068.8746365378602,187.0,-0.0036440121475607157,770048.0,1970.6481235027313,1.0769163338864018e-14,0.0,2.2545292377471924,-0.02254529669880867,0.03899511694908142,-0.022545291110873222,-5.587935447692871e-09,0.0,-0.0007307245396077633,0.2793004512786865,0.7269635420623066,-0.09060924500226974,0.38005608320236206,-0.09133996814489365,0.5345167517662048,3.8320677280426025,0.9962115287780762,,,,,,,
9389848000.0,73.23,-0.27000001072883606,12495335936.0,1085.6232238187297,188.0,-0.0016844136407598853,774144.0,1974.4210715293884,9.542713841348416e-15,0.0,2.2544548511505127,-0.022544555366039276,0.03163723275065422,-0.02254454791545868,-6.51925802230835e-09,0.0,-0.01046859659254551,0.25135689973831177,0.8294305580163068,-0.13111042976379395,0.4783785939216614,-0.1415790170431137,0.6086115837097168,3.7729480266571045,0.9959869384765625,,,,,,,
9389848000.0,74.39,-0.2199999988079071,12495335936.0,1074.3998267438915,189.0,-0.00056212127674371,778240.0,1978.2334325313568,9.96945581643871e-15,0.0,2.276118516921997,-0.022761192172765732,0.03536153584718704,-0.022761184722185135,-7.450580596923828e-09,0.0,-0.013698077760636806,0.2656174898147583,0.7370408429823008,-0.024061843752861023,0.36990025639533997,-0.037759918719530106,0.5179794430732727,3.812361001968384,0.9959535598754883,,,,,,,
9389848000.0,72.02,-0.009999999776482582,12495335936.0,1089.5320027412276,190.0,0.0008441826794296503,782336.0,1981.9928448200226,9.953843305154919e-15,0.0,2.253906726837158,-0.022539058700203896,0.03958762437105179,-0.022539066150784492,7.450580596923828e-09,0.0,0.020579714328050613,0.2806616425514221,0.7235084000611316,-0.03449712693691254,0.3863079845905304,-0.013917414471507072,0.5337551236152649,3.7594122886657715,0.9960429668426514,,,,,,,
9389848000.0,75.33,0.07999999821186066,12495335936.0,1061.533525004001,191.0,0.000563641544431448,786432.0,1985.851413488388,1.0486403412279799e-14,0.0,2.2052807807922363,-0.022052807733416557,0.0231599360704422,-0.022052807733416557,0.0,0.0,-0.012882206588983536,0.21486085653305054,0.7910595710658188,-0.0010763118043541908,0.3579903841018677,-0.013958518393337727,0.47005221247673035,3.8585686683654785,0.9963653087615967,,,,,,,
,,,,,,,,,,,,,,,,,,,,,,,,,,0.009663939476013184,0.05455876141786575,0.046946898102760315,0.009663939476013184,0.05455876141786575,0.046946898102760315,
,,,,,,,,,,,,,,,,,,,,,,,,,,0.005036760587245226,0.0410214364528656,0.03832269459962845,0.005036760587245226,0.0410214364528656,0.03832269459962845,
,,,,,,,,,,,,,,,,,,,,,,,,,,0.004931486677378416,0.03569857403635979,0.03344741091132164,0.004931486677378416,0.03569857403635979,0.03344741091132164,
,,,,,,,,,,,,,,,,,,,,,,,,,,0.004930687602609396,0.032937996089458466,0.030270982533693314,0.004930687602609396,0.032937996089458466,0.030270982533693314,
,,,,,,,,,,,,,,,,,,,,,,,,,,0.004147888161242008,0.030106374993920326,0.028040820732712746,0.004147888161242008,0.030106374993920326,0.028040820732712746,
,,,,,,,,,,,,,,,,,,,,,,,,,,0.004196307621896267,0.028550850227475166,0.02608303166925907,0.004196307621896267,0.028550850227475166,0.02608303166925907,
,,,,,,,,,,,,,,,,,,,,,,,,,,,,,,,,-0.97
9389936000.0,73.71,-0.15000000596046448,12293103616.0,15.965585296206248,192.0,-0.002680989447981119,790528.0,2242.4032356739044,8.961581476896185e-15,0.0,2.2029547691345215,-0.022029541432857513,0.04303472489118576,-0.02202954702079296,5.587935447692871e-09,0.0,-0.01322533842176199,0.29311347007751465,0.6072710042365972,-0.023515351116657257,0.2693856954574585,-0.03674069046974182,0.46772363781929016,256.55182218551636,0.9960918426513672,,,,,,,
9389936000.0,72.34,-0.12999999523162842,12495335936.0,1063.5577269852527,193.0,0.0005653662956319749,794624.0,2246.2544605731964,8.978928711655954e-15,0.0,2.177332878112793,-0.021773329004645348,0.01010704692453146,-0.021773329004645348,0.0,0.0,0.003966497257351875,0.1421382874250412,0.7861001299720028,0.014809154905378819,0.23141567409038544,0.01877564936876297,0.3073306083679199,3.851224899291992,0.9964849948883057,,,,,,,
9389936000.0,72.87,-0.07000000029802322,12495335936.0,1089.0446713297742,194.0,-0.0021225749514997005,798720.0,2250.0155551433563,9.265158085192127e-15,0.0,2.170380115509033,-0.021703796461224556,0.03598100692033768,-0.021703800186514854,3.725290298461914e-09,0.0,0.0015604994259774685,0.2682855725288391,0.7611743864458871,-0.04868626222014427,0.4315454065799713,-0.047125764191150665,0.5489804744720459,3.761094570159912,0.9963042736053467,,,,,,,
9389936000.0,75.2,-0.10999999940395355,12495335936.0,1085.6612994061804,195.0,0.0012751955073326826,802816.0,2253.788370847702,9.721390359374027e-15,0.0,2.212486743927002,-0.022124869748950005,0.02741978131234646,-0.022124866023659706,-3.725290298461914e-09,0.0,0.005533942952752113,0.23414169251918793,0.757781271050734,2.761930227279663e-05,0.37945327162742615,0.00556156225502491,0.47574567794799805,3.772815704345703,0.9959502220153809,,,,,,,
9389936000.0,75.46,0.05999999865889549,12495335936.0,1063.5662864997,196.0,0.0021284292452037334,806912.0,2257.6395647525787,1.0011089179862154e-14,0.0,2.172769069671631,-0.021727697923779488,0.02033676952123642,-0.02172769047319889,-7.450580596923828e-09,0.0,0.026721302419900894,0.19992314279079437,0.786066152118986,0.027881313115358353,0.38121506571769714,0.05460261180996895,0.4322383999824524,3.851193904876709,0.9957966804504395,,,,,,,
9389936000.0,77.0,0.1899999976158142,12495335936.0,1051.843172294999,197.0,0.001705606235191226,811008.0,2261.5336813926697,9.593020822151743e-15,0.0,2.2192444801330566,-0.022192437201738358,0.03535355627536774,-0.022192444652318954,7.450580596923828e-09,0.0,0.009741298854351044,0.2657620310783386,0.6505338763718778,0.039581865072250366,0.4392765760421753,0.04932317137718201,0.44956284761428833,3.8941166400909424,0.9968304634094238,,,,,,,
9389936000.0,76.64,0.11999999731779099,12495335936.0,1091.4410412147286,198.0,-0.0012812307104468346,815104.0,2265.286518096924,1.0191500421363742e-14,0.0,2.244077682495117,-0.02244076505303383,0.0329635851085186,-0.022440776228904724,1.1175870895385742e-08,0.0,-0.012486528605222702,0.25649040937423706,0.8227580061936106,-0.033449746668338776,0.5768521428108215,-0.04593627154827118,0.6092391610145569,3.7528367042541504,0.9962084293365479,,,,,,,
9389936000.0,74.48,-0.05000000074505806,12495335936.0,1063.540147491484,199.0,0.00085539958672598,819200.0,2269.1378066539764,1.0765693891912065e-14,0.0,2.2570719718933105,-0.022570714354515076,0.04129474610090256,-0.022570719942450523,5.587935447692871e-09,0.0,-0.025267604738473892,0.28630587458610535,0.4727490594376005,0.12839101254940033,0.350069135427475,0.10312340408563614,0.39429527521133423,3.8512885570526123,0.9961228370666504,,,,,,,
9389936000.0,74.24,0.009999999776482582,12495335936.0,1091.4730770042024,200.0,-0.0008566137403249741,823296.0,2272.890533208847,1.0835082830951137e-14,0.0,2.250648260116577,-0.02250647358596325,0.0314449742436409,-0.022506482899188995,9.313225746154785e-09,0.0,-0.011436136439442635,0.250548392534256,0.8348375591468586,-0.007777651771903038,0.5639649629592896,-0.019213790073990822,0.6165041327476501,3.7527265548706055,0.9959328174591064,,,,,,,
9389936000.0,78.06,0.18000000715255737,12495335936.0,1089.8173795985267,201.0,0.004718119278550148,827392.0,2276.6489610671997,1.2460518727941405e-14,0.0,2.1873950958251953,-0.021873949095606804,0.025338809937238693,-0.021873950958251953,1.862645149230957e-09,0.0,0.03757500275969505,0.22198596596717834,0.6680498032427341,0.0977255180478096,0.39031606912612915,0.13530051708221436,0.3852911591529846,3.758427858352661,0.9961059093475342,,,,,,,
9389936000.0,78.08,0.550000011920929,12495335936.0,1094.1036397882797,202.0,0.004009519703686237,831488.0,2280.392664909363,1.2708584185006089e-14,0.0,2.196815252304077,-0.021968159824609756,0.027367444708943367,-0.02196815237402916,-7.450580596923828e-09,0.0,0.033941686153411865,0.23150797188282013,0.6195676128881893,0.1389707624912262,0.344535768032074,0.17291244864463806,0.3753420114517212,3.743703842163086,0.9964656829833984,,,,,,,
9389936000.0,78.83,0.550000011920929,12495335936.0,1073.7075995702637,203.0,0.004875794518738985,835584.0,2284.207483768463,1.2307863062055446e-14,0.0,2.1869583129882812,-0.021869579330086708,0.026096723973751068,-0.021869583055377007,3.725290298461914e-09,0.0,0.015412556007504463,0.22796620428562164,0.7092722106762126,0.1696551889181137,0.3841933310031891,0.18506774306297302,0.4227924048900604,3.814818859100342,0.9957561492919922,,,,,,,
9389936000.0,79.93,0.41999998688697815,12495335936.0,1106.2666156329155,204.0,0.0010052244178950787,839680.0,2287.91002702713,1.3176959523519827e-14,0.0,2.199824333190918,-0.021998237818479538,0.034762538969516754,-0.021998243406414986,6.51925802230835e-09,0.0,-0.04384436085820198,0.26003703474998474,0.7600754916802118,0.13152016699314117,0.4748794138431549,0.08767581731081009,0.5308818817138672,3.702543258666992,0.9964828491210938,,,,,,,
9389936000.0,76.37,0.4300000071525574,12495335936.0,1103.3897691739837,205.0,0.005607814993709326,843776.0,2291.622223854065,1.0979064879457212e-14,0.0,2.230705738067627,-0.02230704575777054,0.01742633432149887,-0.022307056933641434,1.1175870895385742e-08,0.0,0.008850682526826859,0.18650154769420624,0.7384138005517845,0.20027698576450348,0.32152050733566284,0.20912766456604004,0.3646490275859833,3.7121968269348145,0.9960236549377441,,,,,,,
9389936000.0,76.0,0.46000000834465027,12495335936.0,1092.6130264631872,206.0,0.001727537834085524,847872.0,2295.3710350990295,1.2259290804728096e-14,0.0,2.240863084793091,-0.022408630698919296,0.03233477100729942,-0.022408630698919296,0.0,0.0,-0.01884227618575096,0.2536340355873108,0.7369746077468061,0.14122380316257477,0.40302252769470215,0.1223815307021141,0.4945482313632965,3.7488112449645996,0.9959661960601807,,,,,,,
9389936000.0,77.15,0.20999999344348907,12495335936.0,1101.013586470119,207.0,0.00028830510564148426,851968.0,2299.091243505478,1.2875117638699862e-14,0.0,2.216590404510498,-0.02216590754687786,0.042712271213531494,-0.022165903821587563,-3.725290298461914e-09,0.0,-0.027528781443834305,0.2910109758377075,0.7737208695293265,0.08873850107192993,0.5698080658912659,0.061209727078676224,0.6117684245109558,3.7202084064483643,0.9962072372436523,,,,,,,
9389936000.0,83.9,0.17000000178813934,12495335936.0,1083.2159010747753,208.0,0.001876730821095407,856064.0,2302.8725764751434,1.3336554083309693e-14,0.0,2.1805646419525146,-0.021805645897984505,0.03020041063427925,-0.021805645897984505,0.0,0.0,-0.01229306124150753,0.24548809230327606,0.6752618376459879,0.16246362030506134,0.3940073251724243,0.15017054975032806,0.43078815937042236,3.7813329696655273,0.9962494373321533,,,,,,,
9389936000.0,82.12,0.23000000417232513,12495335936.0,1075.4109962926207,209.0,0.001734243705868721,860160.0,2306.681352853775,1.263225635206311e-14,0.0,2.2410173416137695,-0.022410167381167412,0.03205588459968567,-0.02241017296910286,5.587935447692871e-09,0.0,-0.01131356693804264,0.252981036901474,0.6655399103259152,0.17691858112812042,0.34042108058929443,0.16560500860214233,0.4374372661113739,3.808776378631592,0.9959542751312256,,,,,,,
9389936000.0,75.43,0.28999999165534973,12495335936.0,1093.0726776705185,210.0,0.000723398057743907,864256.0,2310.4285876750946,1.2231535229112467e-14,0.0,2.2539684772491455,-0.02253968082368374,0.048119913786649704,-0.022539684548974037,3.725290298461914e-09,0.0,-0.04137466102838516,0.3074915409088135,0.6104374744031025,0.13644930720329285,0.33671650290489197,0.09507464617490768,0.4926569163799286,3.74723482131958,0.9960384368896484,,,,,,,
9389936000.0,74.96,-0.1599999964237213,12495335936.0,1078.764213062201,211.0,-0.0024618119932711124,868352.0,2314.2255249023438,1.3308798507694064e-14,0.0,2.202461004257202,-0.022024603560566902,0.03743219003081322,-0.02202460914850235,5.587935447692871e-09,0.0,-0.054987505078315735,0.2680639922618866,0.8488759113170994,0.03842638432979584,0.5909402370452881,-0.016561118885874748,0.689559280872345,3.7969372272491455,0.9959750175476074,,,,,,,
9389936000.0,78.0,-0.38999998569488525,12495335936.0,1086.2471080505434,212.0,-0.002318632323294878,872448.0,2317.9963059425354,1.1705914015891494e-14,0.0,2.212074041366577,-0.02212073653936386,0.04797288030385971,-0.02212074026465416,3.725290298461914e-09,0.0,-0.016750935465097427,0.3093356192111969,0.8016849169911053,-0.018048888072371483,0.6042773723602295,-0.03479982540011406,0.6946277022361755,3.7707810401916504,0.9961380958557129,,,,,,,
9389936000.0,75.09,-0.25,12495335936.0,1082.8516519128582,213.0,-0.0015952563844621181,876544.0,2321.7789108753204,1.2696441120674251e-14,0.0,2.233872175216675,-0.022338714450597763,0.031475260853767395,-0.02233872190117836,7.450580596923828e-09,0.0,-0.006872184108942747,0.25083592534065247,0.8494160875915562,-0.0216758381575346,0.5655592083930969,-0.028548022732138634,0.6463986039161682,3.782604932785034,0.996903657913208,,,,,,,
9389936000.0,76.74,-0.029999999329447746,12495335936.0,1120.6548890898719,214.0,0.0015973602421581745,880640.0,2325.433916568756,1.2205514376972815e-14,0.0,2.206674337387085,-0.022066742181777954,0.03199826925992966,-0.022066742181777954,0.0,0.0,-0.0037667150609195232,0.25297820568084717,0.7372838691377455,0.016897456720471382,0.41739773750305176,0.01313074305653572,0.49355971813201904,3.655005693435669,0.9959897994995117,,,,,,,
9389936000.0,79.73,0.28999999165534973,12495335936.0,1115.3015134133557,215.0,0.00378026464022696,884736.0,2329.1064660549164,1.3402473575396812e-14,0.0,2.18363618850708,-0.02183636836707592,0.02635403349995613,-0.021836360916495323,-7.450580596923828e-09,0.0,0.0391620472073555,0.2262452244758606,0.7290120185487062,0.046978678554296494,0.3899567723274231,0.08614072948694229,0.4346146881580353,3.6725494861602783,0.9959921836853027,,,,,,,
9389936000.0,82.52,0.44999998807907104,12495335936.0,1102.1428041523513,216.0,0.0008734738221392035,888832.0,2332.8228628635406,1.2573275753879898e-14,0.0,2.1916086673736572,-0.021916085854172707,0.037702225148677826,-0.021916085854172707,0.0,0.0,0.013416707515716553,0.27430427074432373,0.5267884901417796,0.02739647775888443,0.32683759927749634,0.04081318527460098,0.3987538516521454,3.7163968086242676,0.9958062171936035,,,,,,,
9389936000.0,88.59,0.2199999988079071,12495335936.0,1108.1781125415691,217.0,0.0018948749639093876,892928.0,2336.5190196037292,1.3166551182663966e-14,0.0,2.163522720336914,-0.021635230630636215,0.05351273715496063,-0.021635226905345917,-3.259629011154175e-09,0.0,0.021460335701704025,0.32648271322250366,0.5686268921025712,-0.04846515506505966,0.4119489789009094,-0.027004819363355637,0.4970884323120117,3.6961567401885986,0.9962079524993896,,,,,,,
9389936000.0,89.14,0.12999999523162842,12495335936.0,1104.076604734224,218.0,0.0008756611496210098,897024.0,2340.228907108307,1.376156133492401e-14,0.0,2.169924020767212,-0.021699238568544388,0.04142112284898758,-0.021699240431189537,1.862645149230957e-09,0.0,0.04955025389790535,0.2835606634616852,0.6520200450716831,-0.06374102085828781,0.43808886408805847,-0.014190766960382462,0.4806941747665405,3.7098875045776367,0.9960920810699463,,,,,,,
9389936000.0,82.39,0.14000000059604645,12495335936.0,1083.5397320268528,219.0,0.00029224762693047523,901120.0,2344.0091099739075,1.2875117638699862e-14,0.0,2.206913709640503,-0.022069137543439865,0.026329562067985535,-0.022069135680794716,-2.3283064365386963e-09,0.0,0.03447537124156952,0.22689896821975708,0.8810481321604118,-0.13533060252666473,0.6094845533370972,-0.10085523128509521,0.6578803062438965,3.780202865600586,0.9962913990020752,,,,,,,
9389936000.0,79.61,0.029999999329447746,12495335936.0,1076.3870451634893,220.0,1.1641532182693481e-10,905216.0,2347.814432621002,1.201816424156732e-14,0.0,2.214185953140259,-0.02214185893535614,0.056508466601371765,-0.02214185893535614,0.0,0.0,0.040261320769786835,0.3338010907173157,0.6646353039407515,-0.08899462968111038,0.5635747909545898,-0.048733312636613846,0.5764067769050598,3.8053226470947266,0.9959292411804199,,,,,,,
9389936000.0,82.16,0.2199999988079071,12495335936.0,1078.9833904378231,221.0,0.0013183695264160633,909312.0,2351.610598564148,1.3336554083309693e-14,0.0,2.155883550643921,-0.02155883051455021,0.03290988504886627,-0.021558834239840508,3.725290298461914e-09,0.0,0.02701370231807232,0.2551586329936981,0.6482218371561126,0.006643382366746664,0.3755038380622864,0.03365708515048027,0.430205374956131,3.796165943145752,0.9960601329803467,,,,,,,
9389936000.0,77.98,0.38999998569488525,12495335936.0,1094.3204516991748,222.0,0.0063068559393286705,913408.0,2355.3535606861115,1.1539380562197721e-14,0.0,2.196530342102051,-0.021965298801660538,0.02300555445253849,-0.021965302526950836,3.725290298461914e-09,0.0,0.05983171612024307,0.20601367950439453,0.6003626518588363,0.07158227264881134,0.30233439803123474,0.131413996219635,0.32588398456573486,3.742962121963501,0.996309757232666,,,,,,,
9389936000.0,77.37,0.5099999904632568,12495335936.0,1096.3953389186104,223.0,0.0011748031247407198,917504.0,2359.08943939209,1.1239273400853733e-14,0.0,2.2345945835113525,-0.02234594337642193,0.022296005859971046,-0.022345945239067078,1.862645149230957e-09,0.0,0.012680081650614738,0.21081291139125824,0.8430253159450442,-0.025358622893691063,0.4599088430404663,-0.012678545899689198,0.5320866107940674,3.7358787059783936,0.9961097240447998,,,,,,,
,,,,,,,,,,,,,,,,,,,,,,,,,,0.00902907457202673,0.04202474653720856,0.03196129575371742,0.00902907457202673,0.04202474653720856,0.03196129575371742,
,,,,,,,,,,,,,,,,,,,,,,,,,,0.005055393557995558,0.030449192970991135,0.027606740593910217,0.005055393557995558,0.030449192970991135,0.027606740593910217,
,,,,,,,,,,,,,,,,,,,,,,,,,,0.004138492979109287,0.026010718196630478,0.023360371589660645,0.004138492979109287,0.026010718196630478,0.023360371589660645,
,,,,,,,,,,,,,,,,,,,,,,,,,,0.003798917168751359,0.024412808939814568,0.021060921251773834,0.003798917168751359,0.024412808939814568,0.021060921251773834,
,,,,,,,,,,,,,,,,,,,,,,,,,,0.003474126337096095,0.02158251777291298,0.018711360171437263,0.003474126337096095,0.02158251777291298,0.018711360171437263,
,,,,,,,,,,,,,,,,,,,,,,,,,,0.0038075577467679977,0.020516257733106613,0.01812739670276642,0.0038075577467679977,0.020516257733106613,0.01812739670276642,
,,,,,,,,,,,,,,,,,,,,,,,,,,,,,,,,0.11
9389936000.0,78.84,0.4399999976158142,12293103616.0,15.99555729044637,224.0,0.004852423910051584,921600.0,2615.160542488098,1.1428358259735205e-14,0.0,2.220292091369629,-0.022202927619218826,0.019119523465633392,-0.02220292016863823,-7.450580596923828e-09,0.0,0.028004590421915054,0.1935560256242752,0.8488740187614285,0.13235485553741455,0.4722132980823517,0.1603594571352005,0.497894287109375,256.0711030960083,0.9962515830993652,,,,,,,
9389936000.0,79.91,0.41999998688697815,12495335936.0,1081.1279550478928,225.0,0.0017665355699136853,925696.0,2618.9491782188416,1.0552322904366918e-14,0.0,2.2939977645874023,-0.022939980030059814,0.04103955626487732,-0.022939976304769516,-3.725290298461914e-09,0.0,-0.0018208986148238182,0.2865237295627594,0.8210449859265436,0.06058499589562416,0.6235167980194092,0.058764103800058365,0.6773118376731873,3.788635730743408,0.996248722076416,,,,,,,
9389936000.0,78.28,0.1899999976158142,12495335936.0,1081.2059971768854,226.0,0.00044205368612892926,929792.0,2622.7375404834747,9.820269597504705e-15,0.0,2.2881407737731934,-0.022881414741277695,0.03680066764354706,-0.022881407290697098,-8.381903171539307e-09,0.0,0.00021654274314641953,0.2713286578655243,0.8232919934828653,0.0674871951341629,0.5964491963386536,0.0677037313580513,0.6454574465751648,3.7883622646331787,0.9959859848022461,,,,,,,
9389936000.0,80.9,0.20999999344348907,12495335936.0,1096.6708117053583,227.0,0.004278259351849556,933888.0,2626.472480773926,1.0739673039772413e-14,0.0,2.2531023025512695,-0.02253102697432041,0.02890767529606819,-0.022531023249030113,-3.725290298461914e-09,0.0,0.013191948644816875,0.24011540412902832,0.7886732439229223,0.18387800455093384,0.47636547684669495,0.1970699578523636,0.5223273038864136,3.73494029045105,0.9965057373046875,,,,,,,
9389936000.0,77.02,0.30000001192092896,12495335936.0,1049.3445629122893,228.0,0.0014775495510548353,937984.0,2630.3758697509766,1.0793449467527694e-14,0.0,2.2563798427581787,-0.022563794627785683,0.030319763347506523,-0.02256379835307598,3.725290298461914e-09,0.0,-0.06448862701654434,0.23768578469753265,0.5453836178446818,0.2247210144996643,0.2993127405643463,0.16023239493370056,0.3525175154209137,3.9033889770507812,0.9973807334899902,,,,,,,
9389936000.0,76.92,0.3499999940395355,12495335936.0,1095.749472770195,229.0,0.004142114892601967,942080.0,2634.1139504909515,1.041527974976475e-14,0.0,2.2809364795684814,-0.022809365764260292,0.029540006071329117,-0.022809363901615143,-1.862645149230957e-09,0.0,-0.01507162768393755,0.24262569844722748,0.8443391432515889,0.15240120887756348,0.5767116546630859,0.1373295783996582,0.6149603128433228,3.7380807399749756,0.9962446689605713,,,,,,,
9389936000.0,75.39,0.47999998927116394,12495335936.0,1108.992394887958,230.0,0.0029621843714267015,946176.0,2637.807393312454,1.1086617734967774e-14,0.0,2.25274920463562,-0.022527487948536873,0.02305631712079048,-0.02252749167382717,3.259629011154175e-09,0.0,-0.016831640154123306,0.21410399675369263,0.8221502642218933,0.21175360679626465,0.47565221786499023,0.19492197036743164,0.5076894760131836,3.6934428215026855,0.9959993362426758,,,,,,,
9389936000.0,79.06,0.3400000035762787,12495335936.0,1103.7296764267821,231.0,0.0016309124184772372,950272.0,2641.5184469223022,1.1286110934705107e-14,0.0,2.265773296356201,-0.022657742723822594,0.03729715943336487,-0.0226577315479517,-1.1175870895385742e-08,0.0,-0.04203718155622482,0.26989808678627014,0.5870273173535494,0.18411025404930115,0.30872562527656555,0.14207307994365692,0.4199901819229126,3.7110536098480225,0.9972007274627686,,,,,,,
9389936000.0,82.42,0.03999999910593033,12495335936.0,1098.4076665602777,232.0,-0.001039243652485311,954368.0,2645.2474813461304,1.1919285003436642e-14,0.0,2.236438512802124,-0.02236437425017357,0.038183972239494324,-0.022364385426044464,1.1175870895385742e-08,0.0,-0.03906548023223877,0.2736057639122009,0.6681649720615892,0.08865447342395782,0.363343209028244,0.049588996917009354,0.47496774792671204,3.729034423828125,0.9959490299224854,,,,,,,
9389936000.0,81.26,0.10000000149011612,12495335936.0,1059.4365175624832,233.0,0.002972835209220648,958464.0,2649.113687515259,1.3725132141928498e-14,0.0,2.1684789657592773,-0.021684803068637848,0.021105866879224777,-0.021684790030121803,-1.30385160446167e-08,0.0,0.00150768319144845,0.20547449588775635,0.8027990203658357,0.14745500683784485,0.3814101815223694,0.14896270632743835,0.4627041518688202,3.866206169128418,0.9958417415618896,,,,,,,
9389936000.0,81.25,0.4699999988079071,12495335936.0,1094.0642033349725,234.0,0.0041674780659377575,962560.0,2652.8575263023376,1.3834419720915037e-14,0.0,2.159771680831909,-0.021597716957330704,0.02660105749964714,-0.021597716957330704,0.0,0.0,0.002711104229092598,0.2306680679321289,0.7167311563295364,0.1419970840215683,0.32474762201309204,0.14470818638801575,0.43339914083480835,3.7438387870788574,0.9959874153137207,,,,,,,
9389936000.0,83.67,0.6399999856948853,12495335936.0,1078.1025466570002,235.0,0.005363970994949341,966656.0,2656.656793832779,1.3678294608077124e-14,0.0,2.1546239852905273,-0.021546240895986557,0.025794554501771927,-0.021546239033341408,-1.862645149230957e-09,0.0,0.01951126754283905,0.22632043063640594,0.749348118997275,0.16075053811073303,0.40362638235092163,0.18026180565357208,0.4520517885684967,3.799267530441284,0.995990514755249,,,,,,,
9389936000.0,83.8,0.6299999952316284,12495335936.0,1108.831489505069,236.0,0.0025360998697578907,970752.0,2660.3507726192474,1.4557799410397365e-14,0.0,2.1764190196990967,-0.02176418900489807,0.03413984179496765,-0.02176418900489807,-4.656612873077393e-10,0.0,0.007128074765205383,0.2612384557723999,0.5426660419457805,0.10734152793884277,0.3173825740814209,0.11446960270404816,0.38629618287086487,3.693978786468506,0.995913028717041,,,,,,,
9389936000.0,81.82,0.28999999165534973,12495335936.0,1123.2610690440754,237.0,0.002836383180692792,974848.0,2663.997298002243,1.458728970948897e-14,0.0,2.153731346130371,-0.021537305787205696,0.05570343881845474,-0.021537313237786293,7.450580596923828e-09,0.0,0.0169513039290905,0.3333866596221924,0.6460235551065309,0.061317943036556244,0.47646331787109375,0.07826924324035645,0.560352087020874,3.6465253829956055,0.9960305690765381,,,,,,,
9389936000.0,86.57,0.44999998807907104,12495335936.0,1076.4293991022084,238.0,0.004035070538520813,978944.0,2667.80247092247,1.412585326487914e-14,0.0,2.164712905883789,-0.021647118031978607,0.03584291785955429,-0.021647129207849503,1.0244548320770264e-08,0.0,0.005679456517100334,0.2677145302295685,0.6092083774655754,0.10586057603359222,0.3265969753265381,0.11154003441333771,0.4282519519329071,3.805172920227051,0.9958386421203613,,,,,,,
9389936000.0,84.83,0.38999998569488525,12495335936.0,1112.1984487885684,239.0,-0.00029920984525233507,983040.0,2671.4852669239044,1.3537782006523003e-14,0.0,2.163332939147949,-0.0216333270072937,0.037549540400505066,-0.02163332886993885,1.862645149230957e-09,0.0,-0.003010120242834091,0.2740590274333954,0.6739964018990823,0.05209630727767944,0.3384549915790558,0.049086183309555054,0.4799908399581909,3.682796001434326,0.9960126876831055,,,,,,,
9389936000.0,88.33,0.09000000357627869,12495335936.0,1115.781543637717,240.0,0.0008983066072687507,987136.0,2675.156236410141,1.499494972634352e-14,0.0,2.15549898147583,-0.021554982289671898,0.05981707200407982,-0.021554989740252495,7.450580596923828e-09,0.0,-0.03660726547241211,0.3439810276031494,0.546502306067872,0.12284571677446365,0.3118920624256134,0.08623844385147095,0.5107953548431396,3.6709694862365723,0.9966375827789307,,,,,,,
9389936000.0,89.47,0.07999999821186066,12495335936.0,1061.4653798082416,241.0,0.0023979777470231056,991232.0,2679.01505279541,1.4781578738798373e-14,0.0,2.1536049842834473,-0.021536050364375114,0.026897188276052475,-0.021536048501729965,-1.862645149230957e-09,0.0,0.006434245966374874,0.23187518119812012,0.7320466707399927,0.13383451104164124,0.385793000459671,0.1402687430381775,0.4479449987411499,3.858816385269165,0.9996490478515625,,,,,,,
9389936000.0,86.24,0.1899999976158142,12495335936.0,1088.7697729352715,242.0,0.0010504352394491434,995328.0,2682.7770969867706,1.468096477719172e-14,0.0,2.1668872833251953,-0.021668879315257072,0.03636396676301956,-0.021668871864676476,-7.450580596923828e-09,0.0,-0.023593895137310028,0.2686798870563507,0.6291129839377811,0.15225452184677124,0.35373905301094055,0.1286606341600418,0.4411785304546356,3.7620441913604736,0.9974732398986816,,,,,,,
9389936000.0,86.62,0.28999999165534973,12495335936.0,1086.5528250841546,243.0,0.0013520675711333752,999424.0,2686.5468170642853,1.5969864319842486e-14,0.0,2.0861310958862305,-0.020861316472291946,0.03213462978601456,-0.0208613108843565,-4.6566128730773926e-09,0.0,-0.027749240398406982,0.25202131271362305,0.7196526808177484,0.13178634643554688,0.36351585388183594,0.10403710603713989,0.47598040103912354,3.7697200775146484,0.9959330558776855,,,,,,,
9389936000.0,83.85,0.3199999928474426,12495335936.0,1075.3306249984353,244.0,0.0016541886143386364,1003520.0,2690.3558781147003,1.4953316362920077e-14,0.0,2.0654797554016113,-0.020654795691370964,0.04158793017268181,-0.020654797554016113,1.862645149230957e-09,0.0,-0.0003635697066783905,0.28843721747398376,0.6642477147052668,0.14555418491363525,0.36411306262016296,0.14519062638282776,0.4977850317955017,3.809061050415039,0.9960582256317139,,,,,,,
9389936000.0,86.94,0.029999999329447746,12495335936.0,1085.415261623398,245.0,0.0010531415464356542,1007616.0,2694.1295490264893,1.508689007057029e-14,0.0,2.1220834255218506,-0.021220827475190163,0.06255678832530975,-0.02122083306312561,5.587935447692871e-09,0.0,-0.009668581187725067,0.35362493991851807,0.6741095071972971,0.04986642301082611,0.48451054096221924,0.040197841823101044,0.6194511651992798,3.7736709117889404,0.9962010383605957,,,,,,,
9389936000.0,89.33,0.20000000298023224,12495335936.0,1095.7501716507627,246.0,0.0028619738295674324,1011712.0,2697.8676273822784,1.3903808659954109e-14,0.0,2.1712069511413574,-0.021712064743041992,0.03298822417855263,-0.02171206846833229,2.7939677238464355e-09,0.0,0.003942086361348629,0.2568598985671997,0.712812849233308,0.09780380129814148,0.35967588424682617,0.10174588859081268,0.47930699586868286,3.7380783557891846,0.9959523677825928,,,,,,,
9389936000.0,83.11,0.3799999952316284,12495335936.0,1087.916491958064,247.0,0.00241256644949317,1015808.0,2701.632622241974,1.3081549732341102e-14,0.0,2.171872854232788,-0.021718719974160194,0.02015741914510727,-0.02171872742474079,7.450580596923828e-09,0.0,0.008427255786955357,0.20063310861587524,0.8009653184209333,0.06932017207145691,0.3635415732860565,0.07774743437767029,0.44971588253974915,3.7649948596954346,0.9960565567016602,,,,,,,
9389936000.0,80.59,0.25999999046325684,12495335936.0,1113.0190849241972,248.0,0.0019629201851785183,1019904.0,2705.312702894211,1.3536047283047026e-14,0.0,2.146358013153076,-0.021463584154844284,0.026778819039463997,-0.021463580429553986,-2.7939677238464355e-09,0.0,0.01117744855582714,0.23118337988853455,0.7027590616307049,0.050686802715063095,0.35248008370399475,0.061864256858825684,0.42403554916381836,3.6800806522369385,0.9964368343353271,,,,,,,
9389936000.0,76.36,0.17000000178813934,12495335936.0,1102.3561652625422,249.0,-0.00045344652608036995,1024000.0,2709.028380393982,1.7165088794790506e-14,0.0,2.0393240451812744,-0.020393235608935356,0.04487808793783188,-0.020393239334225655,3.725290298461914e-09,0.0,-0.0344482958316803,0.2976425886154175,0.78043958726153,0.05834372341632843,0.4932034909725189,0.023895420134067535,0.6352111101150513,3.715677499771118,0.996131420135498,,,,,,,
9389936000.0,81.85,0.1899999976158142,12495335936.0,1101.1133689448159,250.0,0.0031778509728610516,1028096.0,2712.7482516765594,1.947747518826759e-14,0.0,1.9708598852157593,-0.019708605483174324,0.04182887822389603,-0.019708598032593727,-7.450580596923828e-09,0.0,-0.004197143949568272,0.28924137353897095,0.6788999024223674,0.10787490010261536,0.43630221486091614,0.10367774963378906,0.5104346871376038,3.7198712825775146,0.9962704181671143,,,,,,,
9389936000.0,88.33,0.2199999988079071,12495335936.0,1078.7946960824447,251.0,0.0007572555332444608,1032192.0,2716.545081615448,1.8920628952479035e-14,0.0,1.9645743370056152,-0.019645746797323227,0.04314276948571205,-0.01964574307203293,-3.725290298461914e-09,0.0,-0.03454659879207611,0.2917410731315613,0.782089917909327,0.07055625319480896,0.5611820816993713,0.03600965440273285,0.6249696016311646,3.79682993888855,0.9962475299835205,,,,,,,
9389936000.0,86.36,0.30000001192092896,12495335936.0,1084.9646988448512,252.0,0.0033352342434227467,1036288.0,2720.3203196525574,2.0027382530152238e-14,0.0,1.9872698783874512,-0.019872691482305527,0.037208445370197296,-0.019872698932886124,7.450580596923828e-09,0.0,0.04633541405200958,0.2688634693622589,0.8379598754951836,0.06887972354888916,0.63627690076828,0.11521513760089874,0.6679139137268066,3.775238037109375,0.9960377216339111,,,,,,,
9389936000.0,86.38,0.07000000029802322,12495335936.0,1080.4835687574853,253.0,-0.001668425276875496,1040384.0,2724.111214876175,1.9307472287621863e-14,0.0,1.9924259185791016,-0.01992425136268139,0.064949631690979,-0.019924258813261986,7.450580596923828e-09,0.0,-0.03550104424357414,0.3587065041065216,0.7173031408332576,0.0876937061548233,0.5452443361282349,0.05219265818595886,0.6746503114700317,3.7908952236175537,0.996025800704956,,,,,,,
9389936000.0,89.56,0.14000000059604645,12495335936.0,1081.4244661747932,254.0,0.003340974682942033,1044480.0,2727.898811817169,2.047667591043023e-14,0.0,1.9779672622680664,-0.019779669120907784,0.038889288902282715,-0.019779672846198082,3.725290298461914e-09,0.0,-0.0023980573751032352,0.27891185879707336,0.6814775419735006,0.14495159685611725,0.41108909249305725,0.14255353808403015,0.4941933751106262,3.7875969409942627,0.9963736534118652,,,,,,,
