CpuMaxMemory,EpLenMean,EpRewMean,GpuMaxMemory,IPS_total,Iter,Misc/FrameRewMean,Misc/InteractCount,Misc/TimeElapsed,Opt/approxkl,Opt/clipfrac,Opt/entropy,Opt/loss_pi,Opt/loss_vf,Opt/negent,Opt/pg,Opt/pi_kl,VFStats/AdvMean,VFStats/AdvStd,VFStats/EV,VFStats/VpredMean,VFStats/VpredStd,VFStats/VtargMean,VFStats/VtargStd,del_time,wait_optimization,scaled/pol_distance,scaled/vf_aux,scaled/vf_true,unscaled/pol_distance,unscaled/vf_aux,unscaled/vf_true,EvalEpMean
3031452000.0,73.68181818181819,-2.7727272510528564,11965495808.0,1583.497177749649,0.0,-0.016687290742993355,4096.0,2.586679697036743,4.0314973581701e-15,0.0,2.706505060195923,-0.027065057307481766,0.20766210556030273,-0.02706504985690117,-7.450580596923828e-09,0.0,-0.23886559903621674,0.5986275672912598,-0.00042459117904458665,0.010089842602610588,0.017459066584706306,-0.2287757694721222,0.5985004901885986,2.586679697036743,1.0265920162200928,,,,,,,
3082484000.0,82.20879120879121,-2.8681318759918213,12031147008.0,1653.467778932177,1.0,-0.015836037695407867,8192.0,5.063897609710693,4.010680676458378e-15,0.0,2.702509880065918,-0.027025101706385612,0.1860925555229187,-0.027025097981095314,-3.725290298461914e-09,0.0,-0.18283316493034363,0.5820994973182678,0.007483442379883742,-0.270060271024704,0.06505274027585983,-0.4528934359550476,0.5842899084091187,2.47721791267395,0.9974784851074219,,,,,,,
3131648000.0,85.04,-2.6700000762939453,12031147008.0,1637.3253927847725,2.0,-0.014920995570719242,12288.0,7.56553840637207,4.246603069191224e-15,0.0,2.6975278854370117,-0.026975270360708237,0.20017269253730774,-0.026975277811288834,7.450580596923828e-09,0.0,-0.05505683645606041,0.6304055452346802,0.04453527382139533,-0.6815053820610046,0.15309622883796692,-0.7365622520446777,0.6449302434921265,2.501640796661377,0.9982607364654541,,,,,,,
3180752000.0,82.84,-2.700000047683716,12031147008.0,1671.613355027498,3.0,-0.013571783900260925,16384.0,10.015865802764893,5.571931804837504e-15,0.0,2.6880362033843994,-0.026880331337451935,0.25616490840911865,-0.026880361139774323,2.9802322387695312e-08,0.0,0.10512755811214447,0.7080963253974915,0.022481447649113306,-1.3434878587722778,0.28489965200424194,-1.2383602857589722,0.7161925435066223,2.4503273963928223,0.9978775978088379,,,,,,,
3230384000.0,86.21,-2.6500000953674316,12031147008.0,1643.072663385597,4.0,-0.012560904026031494,20480.0,12.508756160736084,7.521760991835436e-15,0.0,2.6638686656951904,-0.026638679206371307,0.2511327266693115,-0.026638686656951904,7.450580596923828e-09,0.0,0.09916241466999054,0.7018209099769592,0.041208892815725595,-1.2023954391479492,0.22822719812393188,-1.103232979774475,0.7167443037033081,2.4928903579711914,0.9976987838745117,,,,,,,
3280016000.0,81.88,-2.2100000381469727,12031147008.0,1707.1373775109669,5.0,-0.011337462812662125,24576.0,14.90809440612793,7.769826448900119e-15,0.0,2.6209352016448975,-0.026209354400634766,0.16801199316978455,-0.026209350675344467,-3.725290298461914e-09,0.0,0.07915585488080978,0.5743160247802734,0.00795148165248405,-0.8911961913108826,0.17799751460552216,-0.8120403289794922,0.5766131281852722,2.3993382453918457,0.9975261688232422,,,,,,,
3329648000.0,78.59,-1.7599999904632568,12031147008.0,1712.121703081753,6.0,-0.011278500780463219,28672.0,17.300447702407837,7.08461067588928e-15,0.0,2.496260404586792,-0.02496258169412613,0.1439584642648697,-0.02496260404586792,2.2351741790771484e-08,0.0,0.02410005033016205,0.536102831363678,0.014862081570434782,-0.6440794467926025,0.1256421059370041,-0.6199793815612793,0.5401316285133362,2.3923532962799072,0.9978361129760742,,,,,,,
3379016000.0,78.73,-2.130000114440918,12031147008.0,1714.9865494317692,7.0,-0.014300787821412086,32768.0,19.688804626464844,9.549652735252323e-15,0.0,2.2069597244262695,-0.022069601342082024,0.16164180636405945,-0.022069597616791725,-3.725290298461914e-09,0.0,-0.05178365111351013,0.5662865042686462,0.054683030792157306,-0.4733496606349945,0.09435082226991653,-0.5251333117485046,0.5824350118637085,2.388356924057007,0.9976882934570312,,,,,,,
3428648000.0,75.52,-1.9299999475479126,12031147008.0,1698.656882539454,8.0,-0.009577816352248192,36864.0,22.10012149810791,1.5260362418167972e-14,0.0,1.7608160972595215,-0.01760815642774105,0.10067349672317505,-0.01760816015303135,3.725290298461914e-09,0.0,-0.03517738729715347,0.4473906457424164,0.0014558216349996878,-0.33970972895622253,0.058026667684316635,-0.3748871088027954,0.44771668314933777,2.4113168716430664,0.9974899291992188,,,,,,,
3478016000.0,79.3,-1.7599999904632568,12031147008.0,1685.7089631731603,9.0,-0.010209054686129093,40960.0,24.529959678649902,2.663841369709985e-14,0.0,0.9526140689849854,-0.009526140056550503,0.11146636307239532,-0.009526140056550503,0.0,0.0,-0.07241133600473404,0.4666288495063782,0.05390351905918944,-0.315474271774292,0.06789828836917877,-0.3878856301307678,0.4797377288341522,2.429838180541992,0.9975388050079346,,,,,,,
3527648000.0,86.9,-1.5399999618530273,12031147008.0,1684.336238426963,10.0,-0.008978018537163734,45056.0,26.961778163909912,5.445643935786393e-14,0.0,0.5745576620101929,-0.005745561793446541,0.11028355360031128,-0.005745576694607735,1.4901161193847656e-08,0.0,-0.0773850828409195,0.46328291296958923,0.046276845140440614,-0.28623563051223755,0.0523812435567379,-0.36362069845199585,0.47438952326774597,2.4318184852600098,0.9976379871368408,,,,,,,
3577276000.0,100.23,-1.9299999475479126,12031147008.0,1738.5431043572999,11.0,-0.009572108276188374,49152.0,29.317773818969727,1.1307621505807219e-13,0.0,0.6998144388198853,-0.006998155266046524,0.12470155209302902,-0.006998144090175629,-1.1175870895385742e-08,0.0,-0.10561859607696533,0.488165944814682,0.04658733933325632,-0.28659647703170776,0.05896907299757004,-0.3922150731086731,0.4999505281448364,2.3559956550598145,0.997596263885498,,,,,,,
3626644000.0,110.06,-2.059999942779541,12031147008.0,1659.1025484801085,12.0,-0.007836095988750458,53248.0,31.78657841682434,2.173261570703744e-14,0.0,0.17532752454280853,-0.0017532677156850696,0.12120629101991653,-0.0017532751662656665,7.450580596923828e-09,0.0,-0.08827560395002365,0.4844350218772888,-0.0025399434721125047,-0.2674250602722168,0.057165905833244324,-0.35570067167282104,0.48382094502449036,2.4688045978546143,0.9977583885192871,,,,,,,
3676540000.0,110.56,-2.1600000858306885,12031147008.0,1574.5180896825939,13.0,-0.008067570626735687,57344.0,34.38800930976868,2.914335439641036e-15,0.0,0.023666616529226303,-0.0002366643020650372,0.0895635336637497,-0.00023666616471018642,1.862645149230957e-09,0.0,-0.07740366458892822,0.4161466360092163,0.0017531652628479666,-0.27306127548217773,0.04666055738925934,-0.35046494007110596,0.4165119230747223,2.601430892944336,0.9975190162658691,,,,,,,
3725908000.0,106.43,-1.9500000476837158,12031147008.0,1623.2846540133278,14.0,-0.01000206172466278,61440.0,36.911288261413574,1.1102230246251565e-15,0.0,0.00346157094463706,-3.4615710319485515e-05,0.13701483607292175,-3.4615710319485515e-05,0.0,0.0,-0.0872330442070961,0.5162220001220703,0.016599117853436596,-0.3146948218345642,0.05996120721101761,-0.4019278883934021,0.5205604434013367,2.5232789516448975,0.9979608058929443,,,,,,,
3775540000.0,103.2,-1.7899999618530273,12031147008.0,1666.9591323130262,15.0,-0.010493616573512554,65536.0,39.368457078933716,0.0,0.0,0.00034227001015096903,-3.4348072404100094e-06,0.14269855618476868,-3.422700046940008e-06,-1.210719347000122e-08,0.0,-0.08945439755916595,0.5267473459243774,0.058187909712224095,-0.39192813634872437,0.08271026611328125,-0.48138248920440674,0.5427754521369934,2.4571688175201416,0.9976251125335693,,,,,,,
3825172000.0,107.89,-2.4200000762939453,12031147008.0,1663.3948000798202,16.0,-0.014299750328063965,69632.0,41.830891132354736,0.0,0.0,4.895676829619333e-05,-4.960869546266622e-07,0.16294023394584656,-4.895676966043538e-07,-6.51925802230835e-09,0.0,-0.1601894646883011,0.547990083694458,0.07754247762166477,-0.5073684453964233,0.10159673541784286,-0.6675578355789185,0.5705575346946716,2.4624340534210205,0.9978020191192627,,,,,,,
3874540000.0,116.5,-2.5,12031147008.0,1585.458007883607,17.0,-0.008417499251663685,73728.0,44.414371728897095,0.0,0.0,1.4040938367543276e-05,-1.5531054486928042e-07,0.1336020976305008,-1.4040938367543276e-07,-1.4901161193847656e-08,0.0,-0.04705296829342842,0.5148348212242126,0.07737245073023591,-0.585578978061676,0.14953462779521942,-0.6326319575309753,0.5359876155853271,2.5834805965423584,0.9979794025421143,,,,,,,
3924172000.0,116.96,-2.5,12031147008.0,1601.489749548587,18.0,-0.007844677194952965,77824.0,46.97199034690857,0.0,0.0,1.6325101341863046e-06,-1.818774642003973e-08,0.13661789894104004,-1.6325101270808773e-08,-1.862645149230957e-09,0.0,0.0022566616535186768,0.5227785706520081,0.08989740233883703,-0.7510316371917725,0.1732608675956726,-0.7487749457359314,0.5479899644851685,2.5576186180114746,0.9981036186218262,,,,,,,
3973540000.0,117.26,-2.1700000762939453,12031147008.0,1632.9682240784043,19.0,-0.010325550101697445,81920.0,49.48030614852905,0.0,0.0,3.541388764460862e-07,-7.266678814232819e-09,0.16120865941047668,-3.5413887378155096e-09,-3.725290298461914e-09,0.0,-0.03973883390426636,0.5664949417114258,0.10654928201934366,-0.9450696110725403,0.21699616312980652,-0.9848084449768066,0.5993227362632751,2.5083158016204834,0.997957706451416,,,,,,,
4023172000.0,115.52,-2.0299999713897705,12031147008.0,1666.0076464320837,20.0,-0.010793805122375488,86016.0,51.938878297805786,0.0,0.0,2.735399959874485e-07,-6.460690205045694e-09,0.19490134716033936,-2.7353999065837797e-09,-3.725290298461914e-09,0.0,0.03335893526673317,0.6235260963439941,0.13415322413977704,-1.1821492910385132,0.2945477068424225,-1.1487903594970703,0.670091450214386,2.4585721492767334,0.9977462291717529,,,,,,,
4072540000.0,117.44,-2.4700000286102295,12031147008.0,1602.1137229638919,21.0,-0.010538559406995773,90112.0,54.495500802993774,0.0,0.0,1.6650668399620372e-08,-3.8917971068030965e-09,0.19279414415359497,-1.665066834410922e-10,-3.725290298461914e-09,0.0,0.09783422201871872,0.6132768988609314,0.1991885503647034,-1.3577438592910767,0.2897311747074127,-1.2599096298217773,0.6853169798851013,2.5566225051879883,0.9978175163269043,,,,,,,
4122172000.0,115.55,-2.640000104904175,12031147008.0,1633.7673548924429,22.0,-0.011751874350011349,94208.0,57.0025897026062,0.0,0.0,7.6787225467001e-09,-1.8703238069406325e-08,0.20845121145248413,-7.678722241388769e-11,-1.862645149230957e-08,0.0,0.05393880233168602,0.6435014009475708,0.17379332942629755,-1.318960189819336,0.29860708117485046,-1.2650213241577148,0.7079542875289917,2.5070888996124268,0.9978570938110352,,,,,,,
4171540000.0,113.59,-2.450000047683716,12031147008.0,1612.7775370484012,23.0,-0.006571178324520588,98304.0,59.54230761528015,0.0,0.0,8.474611012943001e-10,-3.733764852853483e-09,0.15766288340091705,-8.474610770081714e-12,-3.725290298461914e-09,0.0,0.07973017543554306,0.5559175610542297,0.1585726483026686,-1.1305992603302002,0.21789692342281342,-1.050869107246399,0.6060411334037781,2.53971791267395,0.9980201721191406,,,,,,,
4221172000.0,114.61,-2.319999933242798,12031147008.0,1646.7735151558954,24.0,-0.012282904237508774,102400.0,62.029595613479614,0.0,0.0,1.1641492214664595e-09,-1.1641491590164144e-11,0.19997325539588928,-1.1641491590164144e-11,0.0,0.0,-0.01645399071276188,0.6322763562202454,0.1366628010103056,-1.0471742153167725,0.24088113009929657,-1.0636281967163086,0.6804822087287903,2.487287998199463,0.9978933334350586,,,,,,,
4270860000.0,106.62,-2.0299999713897705,12031147008.0,1559.1363393432537,25.0,-0.008762745186686516,106496.0,64.65669107437134,0.0,0.0,2.0549845158868152e-10,1.1173815650522556e-08,0.15432365238666534,-2.0549844378242588e-12,1.1175870895385742e-08,0.0,0.039213769137859344,0.5542423725128174,0.1764450351976935,-0.9567645788192749,0.22959402203559875,-0.9175508618354797,0.6107358932495117,2.6270954608917236,0.9977221488952637,,,,,,,
4320492000.0,104.14,-2.4600000381469727,12031147008.0,1549.8431907599054,26.0,-0.012447364628314972,110592.0,67.29953908920288,0.0,0.0,1.1083890749663539e-10,9.30214183458844e-10,0.16061128675937653,-1.1083890966503973e-12,9.313225746154785e-10,0.0,-0.03504984825849533,0.5657492280006409,0.1778574748983356,-0.9125597476959229,0.21816708147525787,-0.9476096034049988,0.6239508986473083,2.642848014831543,0.9977607727050781,,,,,,,
4369860000.0,107.1,-2.2799999713897705,12031147008.0,1632.473391241286,27.0,-0.01039981096982956,114688.0,69.80861520767212,0.0,0.0,4.995110922112467e-11,-3.725789898822995e-09,0.14572197198867798,-4.995110770324163e-13,-3.725290298461914e-09,0.0,-0.031014475971460342,0.5390296578407288,0.18133770195536625,-0.8669831156730652,0.20120151340961456,-0.8979976177215576,0.5957448482513428,2.5090761184692383,0.9979329109191895,,,,,,,
4419492000.0,112.33,-2.759999990463257,12031147008.0,1610.3741490049865,28.0,-0.014278601855039597,118784.0,72.35212349891663,0.0,0.0,3.844411768094691e-12,1.1175832703713695e-08,0.1876235008239746,-3.844411835857327e-14,1.1175870895385742e-08,0.0,-0.02131129801273346,0.6122779846191406,0.08514235698538808,-0.8860293626785278,0.23018433153629303,-0.9073406457901001,0.6401355266571045,2.543508291244507,0.9988830089569092,,,,,,,
4469124000.0,111.37,-2.759999990463257,12031147008.0,1630.2094326457902,29.0,-0.01236099936068058,122880.0,74.86468410491943,0.0,0.0,1.8903097403349944e-12,4.19093248993363e-09,0.15479068458080292,-1.8903097064536765e-14,4.190951585769653e-09,0.0,-0.049266256392002106,0.5542826056480408,0.25816997825310484,-0.8816720247268677,0.2582891583442688,-0.9309382438659668,0.6435451507568359,2.5125606060028076,0.9987339973449707,,,,,,,
4518492000.0,112.72,-2.8499999046325684,12031147008.0,1645.9661865384426,30.0,-0.010262379422783852,126976.0,77.35319209098816,0.0,0.0,6.938592495703277e-13,-3.725297403889272e-09,0.16356082260608673,-6.938592360178006e-15,-3.725290298461914e-09,0.0,-0.018124449998140335,0.5717280507087708,0.15817013081909925,-0.9601724147796631,0.2803569436073303,-0.9782968759536743,0.6231281161308289,2.4885079860687256,0.9983162879943848,,,,,,,
4568124000.0,112.26,-2.1600000858306885,12031147008.0,1626.9531929199534,31.0,-0.0083448626101017,131072.0,79.87078142166138,0.0,0.0,3.743067054223781e-13,7.450577044210149e-09,0.17060862481594086,-3.743066969520486e-15,7.450580596923828e-09,0.0,0.04132971540093422,0.5827452540397644,0.34748052770502935,-1.115254521369934,0.44827210903167725,-1.0739248991012573,0.721409797668457,2.5175893306732178,0.9975898265838623,,,,,,,
,,,,,,,,,,,,,,,,,,,,,,,,,,0.001748942187987268,0.29975706338882446,0.22311052680015564,0.001748942187987268,0.29975706338882446,0.22311052680015564,
,,,,,,,,,,,,,,,,,,,,,,,,,,0.00011942134005948901,0.2187776118516922,0.2075289934873581,0.00011942134005948901,0.2187776118516922,0.2075289934873581,
,,,,,,,,,,,,,,,,,,,,,,,,,,4.068321504746564e-05,0.21286796033382416,0.19662480056285858,4.068321504746564e-05,0.21286796033382416,0.19662480056285858,
,,,,,,,,,,,,,,,,,,,,,,,,,,9.106099605560303e-05,0.21215249598026276,0.18120203912258148,9.106099605560303e-05,0.21215249598026276,0.18120203912258148,
,,,,,,,,,,,,,,,,,,,,,,,,,,4.514810279943049e-05,0.1996786743402481,0.17045710980892181,4.514810279943049e-05,0.1996786743402481,0.17045710980892181,
,,,,,,,,,,,,,,,,,,,,,,,,,,5.450825847219676e-05,0.18471385538578033,0.1577245593070984,5.450825847219676e-05,0.18471385538578033,0.1577245593070984,
,,,,,,,,,,,,,,,,,,,,,,,,,,,,,,,,-1.06
4586620000.0,116.67,-2.25,11990518784.0,16.84980710815761,32.0,-0.010450121015310287,135168.0,322.9596176147461,0.0,0.0,0.001318900496698916,-1.3196455256547779e-05,0.10692249238491058,-1.3189004675950855e-05,-7.450580596923828e-09,0.0,-0.04475627467036247,0.46031901240348816,0.4286135167870616,-0.5756619572639465,0.30349454283714294,-0.6204181909561157,0.6089671850204468,243.08883619308472,0.9978432655334473,,,,,,,
4586620000.0,109.04,-2.1700000762939453,12041169408.0,1688.5222059069242,33.0,-0.009350400418043137,139264.0,325.38540744781494,0.0,0.0,0.0009241420193575323,-9.237694939656649e-06,0.10284489393234253,-9.24142022995511e-06,3.725290298461914e-09,0.0,-0.012267142534255981,0.4534197747707367,0.5125233605948796,-0.6027014851570129,0.3483545780181885,-0.6149685978889465,0.6494168043136597,2.4257898330688477,0.9976146221160889,,,,,,,
4586620000.0,109.82,-2.5,12041169408.0,1671.0803610961748,34.0,-0.015444770455360413,143360.0,327.83651638031006,0.0,0.0,0.0007125844713300467,-7.137020475056488e-06,0.15369421243667603,-7.125844604161102e-06,-1.1175870895385742e-08,0.0,-0.09807327389717102,0.5457497239112854,0.49993014933298496,-0.7425636053085327,0.3994186818599701,-0.8406368494033813,0.7717528343200684,2.451108932495117,0.9976651668548584,,,,,,,
4586620000.0,108.64,-2.7300000190734863,12041169408.0,1672.1367611943742,35.0,-0.011509180068969727,147456.0,330.2860767841339,0.0,0.0,0.0006189591367729008,-6.2044923652138095e-06,0.1112654060125351,-6.189591204019962e-06,-1.4901161193847656e-08,0.0,-0.015548225492238998,0.471532940864563,0.5570133505752175,-0.7825924158096313,0.4329844117164612,-0.7981405854225159,0.7084623575210571,2.4495604038238525,0.9978394508361816,,,,,,,
4586620000.0,109.42,-2.7100000381469727,12041169408.0,1706.832087972266,36.0,-0.011283733882009983,151552.0,332.68584418296814,0.0,0.0,0.00031311536440625787,-3.132084884782671e-06,0.1254648119211197,-3.1311535622080555e-06,-9.313225746154785e-10,0.0,-0.009152965620160103,0.5009062886238098,0.543368379069888,-0.9006165862083435,0.4953504800796509,-0.9097695350646973,0.741265058517456,2.3997673988342285,0.9977939128875732,,,,,,,
4586620000.0,111.6,-2.2200000286102295,12041169408.0,1756.794509106155,37.0,-0.007260856218636036,155648.0,335.01736330986023,0.0,0.0,0.0003201790386810899,-3.210637942174799e-06,0.11652764678001404,-3.2017903777159518e-06,-8.847564458847046e-09,0.0,0.07168878614902496,0.4774637520313263,0.5758007679461337,-0.9753866791725159,0.5167330503463745,-0.9036978483200073,0.733086884021759,2.33151912689209,0.9977931976318359,,,,,,,
4586620000.0,109.61,-2.2699999809265137,12041169408.0,1769.305263712941,38.0,-0.013549473136663437,159744.0,337.3323962688446,0.0,0.0,0.00017528684111312032,-1.7463490848967922e-06,0.13897129893302917,-1.7528683429191005e-06,6.51925802230835e-09,0.0,0.03307120129466057,0.5262285470962524,0.6419303097552066,-1.1168889999389648,0.6577935218811035,-1.083817720413208,0.8794084191322327,2.315032958984375,0.9976358413696289,,,,,,,
4586620000.0,109.78,-2.2799999713897705,12041169408.0,1711.0181127286673,39.0,-0.014109921641647816,163840.0,339.72629261016846,0.0,0.0,0.00021294454927556217,-2.1368960005929694e-06,0.15216189622879028,-2.1294454199960455e-06,-7.450580596923828e-09,0.0,-0.02516493946313858,0.5511484742164612,0.6054591058111718,-1.1002848148345947,0.6076927185058594,-1.125449776649475,0.8774504661560059,2.3938963413238525,0.9983718395233154,,,,,,,
4586620000.0,121.5,-3.190000057220459,12041169408.0,1664.1875621471747,40.0,-0.009560705162584782,167936.0,342.1875536441803,0.0,0.0,0.000130544081912376,-1.3212733165346435e-06,0.1461067795753479,-1.3054408327661804e-06,-1.5832483768463135e-08,0.0,0.11146964877843857,0.5290145874023438,0.6054416574534549,-1.2309272289276123,0.6782150268554688,-1.1194576025009155,0.8421938419342041,2.461261034011841,0.9980318546295166,,,,,,,
4586620000.0,124.46,-2.6500000953674316,12041169408.0,1739.2321610164645,41.0,-0.00895465537905693,172032.0,344.54261589050293,0.0,0.0,0.00017895642668008804,-1.7970147609958076e-06,0.12824927270412445,-1.7895641803988838e-06,-7.450580596923828e-09,0.0,0.05930425226688385,0.5030341148376465,0.6681049004073637,-1.0616016387939453,0.6525378823280334,-1.0022974014282227,0.8731663823127747,2.355062246322632,0.9977352619171143,,,,,,,
4586620000.0,124.8,-2.619999885559082,12041169408.0,1714.6421659269263,42.0,-0.010668152943253517,176128.0,346.9314525127411,0.0,0.0,0.0001073610910680145,-1.0698855703594745e-06,0.1319364309310913,-1.0736108606579364e-06,3.725290298461914e-09,0.0,0.005398572888225317,0.513719916343689,0.5819178584847554,-0.9926823973655701,0.5821610689163208,-0.9872838258743286,0.7945030927658081,2.388836622238159,0.9975202083587646,,,,,,,
4586620000.0,119.75,-2.200000047683716,12041169408.0,1764.3102966877748,43.0,-0.008481784723699093,180224.0,349.25303959846497,0.0,0.0,0.00020341205527074635,-2.0378458884806605e-06,0.10766950249671936,-2.0341205981821986e-06,-3.725290298461914e-09,0.0,0.029505033046007156,0.46316394209861755,0.5551454542695815,-0.8049516677856445,0.493075430393219,-0.7754465937614441,0.6944255828857422,2.321587085723877,0.9976174831390381,,,,,,,
4586620000.0,120.62,-2.200000047683716,12041169408.0,1695.7306235391115,44.0,-0.0093462523072958,184320.0,351.6685175895691,0.0,0.0,0.0001483740343246609,-1.483740334151662e-06,0.12047864496707916,-1.483740334151662e-06,0.0,0.0,-0.010543148964643478,0.4908207058906555,0.6200130634838248,-0.833920955657959,0.5568652153015137,-0.8444640636444092,0.7962299585342407,2.415477991104126,0.9976558685302734,,,,,,,
4586620000.0,114.22,-2.190000057220459,12041169408.0,1711.4773144345481,45.0,-0.011089935898780823,188416.0,354.06177163124084,0.0,0.0,0.00012981530744582415,-1.3130542129147216e-06,0.10469505935907364,-1.298153051720874e-06,-1.4901161193847656e-08,0.0,-0.016074227169156075,0.4573650658130646,0.6667890604085617,-0.7466980218887329,0.5893793702125549,-0.762772262096405,0.792324960231781,2.393254041671753,0.9978148937225342,,,,,,,
4586620000.0,117.64,-2.3499999046325684,12041169408.0,1680.2434419393717,46.0,-0.008632123470306396,192512.0,356.49951362609863,0.0,0.0,7.986247510416433e-05,-7.948994493744976e-07,0.11425725370645523,-7.986247396729595e-07,3.725290298461914e-09,0.0,-0.011439962312579155,0.47795337438583374,0.5836224935490596,-0.70018070936203,0.5308651924133301,-0.7116206884384155,0.7406991720199585,2.437741994857788,0.9977259635925293,,,,,,,
4586620000.0,115.32,-2.440000057220459,12041169408.0,1645.3928442680321,47.0,-0.011468823999166489,196608.0,358.98888874053955,0.0,0.0,0.00014039064990356565,-1.4057691259949934e-06,0.11411905288696289,-1.4039064808457624e-06,-1.862645149230957e-09,0.0,-0.04541127383708954,0.47563764452934265,0.6490291041556514,-0.7034367918968201,0.5531547665596008,-0.7488481402397156,0.8028615713119507,2.489375114440918,0.997856855392456,,,,,,,
4586620000.0,107.84,-2.130000114440918,12041169408.0,1653.4434313042918,48.0,-0.009753214195370674,200704.0,361.4661431312561,0.0,0.0,0.00014978580293245614,-1.4866820947645465e-06,0.10128246247768402,-1.4978579656599322e-06,1.1175870895385742e-08,0.0,0.054402414709329605,0.44682663679122925,0.6560612304033624,-0.7998587489128113,0.5642715692520142,-0.745456337928772,0.7619009017944336,2.4772543907165527,0.9977421760559082,,,,,,,
4586620000.0,103.8,-2.009999990463257,12041169408.0,1719.2784403644018,49.0,-0.012569403275847435,204800.0,363.8485379219055,0.0,0.0,0.00014423919492401183,-1.4442545079873526e-06,0.1589241772890091,-1.4423918628381216e-06,-1.862645149230957e-09,0.0,-0.06769661605358124,0.5597695708274841,0.6487014699912517,-0.831839919090271,0.6468808650970459,-0.8995364904403687,0.9444329738616943,2.382394790649414,0.9978640079498291,,,,,,,
4586620000.0,105.81,-2.0999999046325684,12041169408.0,1724.6405817644472,50.0,-0.006169687956571579,208896.0,366.2235255241394,0.0,0.0,0.00015068968059495091,-1.5180726222752128e-06,0.12180601060390472,-1.506896751379827e-06,-1.1175870895385742e-08,0.0,0.0858042761683464,0.4861145317554474,0.5700369647132164,-0.7475227117538452,0.5915089249610901,-0.6617183685302734,0.7413495182991028,2.3749876022338867,0.997725248336792,,,,,,,
4586620000.0,106.36,-2.1600000858306885,12041169408.0,1645.6354058375673,51.0,-0.012362375855445862,212992.0,368.7125337123871,0.0,0.0,0.00011323973012622446,-1.1407792044337839e-06,0.1305997669696808,-1.1323973012622446e-06,-8.381903171539307e-09,0.0,-0.0018935671541839838,0.5111356973648071,0.6769694941470255,-0.9130586981773376,0.7415696978569031,-0.9149522185325623,0.8993204832077026,2.4890081882476807,0.9977471828460693,,,,,,,
4586620000.0,106.09,-2.119999885559082,12041169408.0,1739.2934369317577,52.0,-0.010760543867945671,217088.0,371.0675129890442,0.0,0.0,0.0001943440001923591,-1.9453025288385106e-06,0.1248951330780983,-1.9434398836892797e-06,-1.862645149230957e-09,0.0,-0.025239892303943634,0.49921342730522156,0.6804226723427829,-0.8882008790969849,0.7435362935066223,-0.9134408235549927,0.8830764293670654,2.3549792766571045,0.9978911876678467,,,,,,,
4586620000.0,118.76,-2.490000009536743,12041169408.0,1677.6763813787832,53.0,-0.008305459283292294,221184.0,373.508985042572,0.0,0.0,0.000106689432868734,-1.0557184850767953e-06,0.11122076958417892,-1.066894355972181e-06,1.1175870895385742e-08,0.0,0.06035256013274193,0.4678167700767517,0.6977297442647601,-0.9221261739730835,0.7264353036880493,-0.8617737293243408,0.8508992195129395,2.441472053527832,0.997546911239624,,,,,,,
4586620000.0,124.6,-2.5,12041169408.0,1692.969568492473,54.0,-0.010052038356661797,225280.0,375.92840242385864,0.0,0.0,7.298143464140594e-05,-7.298143032130611e-07,0.1482633650302887,-7.298143032130611e-07,0.0,0.0,0.01600795052945614,0.5443738102912903,0.7246690446668056,-0.9019873142242432,0.8612728714942932,-0.8859792947769165,1.0374559164047241,2.419417381286621,0.9977807998657227,,,,,,,
4586620000.0,113.34,-1.9299999475479126,12041169408.0,1739.7464491636242,55.0,-0.0078453803434968,229376.0,378.2827684879303,0.0,0.0,0.00013911121641285717,-1.376211002934724e-06,0.09190699458122253,-1.3911121641285717e-06,1.4901161193847656e-08,0.0,0.0651695504784584,0.4238051176071167,0.6966111821244423,-0.7806405425071716,0.6926982998847961,-0.7154709696769714,0.7694251537322998,2.3543660640716553,0.9979941844940186,,,,,,,
4586620000.0,105.15,-1.940000057220459,12041169408.0,1725.7604336975473,56.0,-0.011336301453411579,233472.0,380.6562149524689,0.0,0.0,9.169007535092533e-05,-9.169007171294652e-07,0.10617826133966446,-9.169007171294652e-07,0.0,0.0,-0.0012419968843460083,0.4608761966228485,0.6898692514638742,-0.6567987203598022,0.6886870861053467,-0.6580406427383423,0.8275835514068604,2.373446464538574,0.9987201690673828,,,,,,,
4586620000.0,110.62,-2.059999942779541,12041169408.0,1708.3805238761918,57.0,-0.012226840481162071,237568.0,383.05380725860596,0.0,0.0,0.0001673891965765506,-1.6664413351463736e-06,0.11972296237945557,-1.6738919157432974e-06,7.450580596923828e-09,0.0,-0.07338953018188477,0.4838564395904541,0.6984348770852645,-0.5981005430221558,0.7176809310913086,-0.6714900732040405,0.8811015486717224,2.397592306137085,0.9977352619171143,,,,,,,
4586620000.0,114.51,-2.4000000953674316,12041169408.0,1745.8902603073095,58.0,-0.008743259124457836,241664.0,385.39988827705383,0.0,0.0,0.00025388880749233067,-2.533300175855402e-06,0.10841591656208038,-2.5388881113030948e-06,5.587935447692871e-09,0.0,-0.042262692004442215,0.4637868106365204,0.7003368236239214,-0.5769644975662231,0.7159113883972168,-0.6192272305488586,0.8472307920455933,2.346081018447876,0.9977121353149414,,,,,,,
4586620000.0,112.26,-2.1500000953674316,12041169408.0,1750.4639767461622,59.0,-0.007758205756545067,245760.0,387.73983931541443,0.0,0.0,0.00042149293585680425,-4.200027888145996e-06,0.08155801892280579,-4.214929049339844e-06,1.4901161193847656e-08,0.0,-0.022663427516818047,0.40328913927078247,0.7385922522181214,-0.43778127431869507,0.6456027030944824,-0.46044468879699707,0.78878253698349,2.3399510383605957,0.9975714683532715,,,,,,,
4586620000.0,109.58,-1.8300000429153442,12041169408.0,1694.0294457690998,60.0,-0.010781874880194664,249856.0,390.15774297714233,0.0,0.0,0.00036089186323806643,-3.5926204873248935e-06,0.10548042505979538,-3.6089186323806643e-06,1.6298145055770874e-08,0.0,-0.03565443679690361,0.45797470211982727,0.5501423951592763,-0.45559340715408325,0.5504000186920166,-0.49124786257743835,0.6828163266181946,2.4179036617279053,0.9975695610046387,,,,,,,
4586620000.0,109.52,-2.059999942779541,12041169408.0,1701.0894862066634,61.0,-0.011779743246734142,253952.0,392.56561160087585,0.0,0.0,0.0007351081585511565,-7.358532002399443e-06,0.11575233191251755,-7.351081421802519e-06,-7.450580596923828e-09,0.0,-0.0864526629447937,0.47337648272514343,0.6271666796316728,-0.5671720504760742,0.6109989285469055,-0.6536246538162231,0.7752634882926941,2.4078686237335205,0.9979002475738525,,,,,,,
4586620000.0,119.01,-2.509999990463257,12041169408.0,1712.8261731403281,62.0,-0.010633181780576706,258048.0,394.9569809436798,0.0,0.0,0.0009300378733314574,-9.307828804594465e-06,0.1147884875535965,-9.30037822399754e-06,-7.450580596923828e-09,0.0,-0.05826329439878464,0.47564440965652466,0.6491775069655116,-0.6131642460823059,0.5981960296630859,-0.6714276075363159,0.8030428886413574,2.391369342803955,0.9975948333740234,,,,,,,
4633036000.0,119.86,-2.4800000190734863,12041169408.0,1686.0798799674715,63.0,-0.012374300509691238,262144.0,397.38628458976746,2.7755575615628914e-17,0.0,0.0015695784240961075,-1.570323365740478e-05,0.1508800983428955,-1.5695783076807857e-05,-7.450580596923828e-09,0.0,-0.06785237044095993,0.5451869964599609,0.6816661238801559,-0.807876706123352,0.8388739228248596,-0.8757291436195374,0.9662823677062988,2.4293036460876465,0.9980511665344238,,,,,,,
,,,,,,,,,,,,,,,,,,,,,,,,,,9.029772627400234e-05,0.2431982308626175,0.11162649840116501,9.029772627400234e-05,0.2431982308626175,0.11162649840116501,
,,,,,,,,,,,,,,,,,,,,,,,,,,3.487272624624893e-05,0.15084576606750488,0.0806487649679184,3.487272624624893e-05,0.15084576606750488,0.0806487649679184,
,,,,,,,,,,,,,,,,,,,,,,,,,,3.7520690966630355e-05,0.11948875337839127,0.06466943025588989,3.7520690966630355e-05,0.11948875337839127,0.06466943025588989,
,,,,,,,,,,,,,,,,,,,,,,,,,,3.439594729570672e-05,0.09423011541366577,0.055495910346508026,3.439594729570672e-05,0.09423011541366577,0.055495910346508026,
,,,,,,,,,,,,,,,,,,,,,,,,,,3.143436697428115e-05,0.07606439292430878,0.04845959320664406,3.143436697428115e-05,0.07606439292430878,0.04845959320664406,
,,,,,,,,,,,,,,,,,,,,,,,,,,3.641767398221418e-05,0.07092028856277466,0.04983522742986679,3.641767398221418e-05,0.07092028856277466,0.04983522742986679,
,,,,,,,,,,,,,,,,,,,,,,,,,,,,,,,,-1.75
4635592000.0,122.61,-2.640000104904175,11990521856.0,16.79914235872558,64.0,-0.009883142076432705,266240.0,641.2082555294037,0.0,0.0,0.0006921427557244897,-6.903732355567627e-06,0.06094680353999138,-6.921427484485321e-06,1.7695128917694092e-08,0.0,0.07375191152095795,0.34129562973976135,0.8644125472632792,-0.8421226739883423,0.78628009557724,-0.7683707475662231,0.926874577999115,243.82197093963623,0.9977931976318359,,,,,,,
4635592000.0,118.42,-2.630000114440918,12041169408.0,1686.7740087549932,65.0,-0.010762342251837254,270336.0,643.6365594863892,0.0,0.0,0.0003243667015340179,-3.236216343793785e-06,0.07804249227046967,-3.243666924390709e-06,7.450580596923828e-09,0.0,0.032509420067071915,0.39378416538238525,0.8604683341664111,-1.0019011497497559,0.8841493129730225,-0.9693917036056519,1.0541973114013672,2.4283039569854736,0.9981274604797363,,,,,,,
4635592000.0,121.93,-2.4000000953674316,12041169408.0,1701.6279775125872,66.0,-0.005888361018151045,274432.0,646.0436661243439,0.0,0.0,0.00038680731086060405,-3.853172074741451e-06,0.059325266629457474,-3.868073235935299e-06,1.4901161193847656e-08,0.0,0.11012595146894455,0.3264181613922119,0.8675145139157713,-0.8608728647232056,0.7911030650138855,-0.7507469654083252,0.8967887759208679,2.407106637954712,0.997812032699585,,,,,,,
4635592000.0,121.04,-2.119999885559082,12041169408.0,1733.0575871781007,67.0,-0.009906737133860588,278528.0,648.4071190357208,0.0,0.0,0.0006185207748785615,-6.1796195041097235e-06,0.07485292851924896,-6.185207439557416e-06,5.587935447692871e-09,0.0,0.053629450500011444,0.3832304775714874,0.8451331624290649,-0.9308788776397705,0.8051524758338928,-0.8772493600845337,0.9738247990608215,2.363452911376953,0.9978914260864258,,,,,,,
4635592000.0,117.39,-1.9800000190734863,12041169408.0,1690.617677874655,68.0,-0.008905453607439995,282624.0,650.8299021720886,0.0,0.0,0.00030999694718047976,-3.0981068448454607e-06,0.07434683293104172,-3.0999694899946917e-06,1.862645149230957e-09,0.0,0.043285708874464035,0.38321778178215027,0.8453432504979244,-0.9725819826126099,0.8209551572799683,-0.9292961955070496,0.9744536876678467,2.422783136367798,0.9982538223266602,,,,,,,
4635592000.0,105.54,-1.850000023841858,12041169408.0,1660.6151556935224,69.0,-0.01153573952615261,286720.0,653.2964580059052,0.0,0.0,0.0004308244097046554,-4.324542260292219e-06,0.08937106281518936,-4.308244115236448e-06,-1.6298145055770874e-08,0.0,0.019305123016238213,0.4223896265029907,0.8846868161636074,-1.0553264617919922,1.080735683441162,-1.03602135181427,1.2438665628433228,2.4665558338165283,0.9978711605072021,,,,,,,
4635592000.0,111.63,-2.369999885559082,12041169408.0,1739.3987429862868,70.0,-0.009271764196455479,290816.0,655.651294708252,0.0,0.0,0.0011839705985039473,-1.183598033094313e-05,0.08046641945838928,-1.1839705621241592e-05,3.725290298461914e-09,0.0,0.0331294909119606,0.39984285831451416,0.8864128697427952,-0.9704983830451965,1.0289767980575562,-0.9373688697814941,1.1863826513290405,2.3548367023468018,0.9975898265838623,,,,,,,
4635592000.0,117.67,-2.450000047683716,12041169408.0,1708.5181400162162,71.0,-0.009650148451328278,294912.0,658.04869389534,0.0,0.0,0.0004199703107587993,-4.1922526179405395e-06,0.09694543480873108,-4.199703198537463e-06,7.450580596923828e-09,0.0,0.03504052758216858,0.4389875531196594,0.8607787518934967,-1.0643210411071777,1.0331224203109741,-1.0292805433273315,1.1765202283859253,2.3973991870880127,0.997795581817627,,,,,,,
4635592000.0,116.31,-2.5299999713897705,12041169408.0,1702.3218126159456,72.0,-0.013533800840377808,299008.0,660.4548194408417,0.0,0.0,0.0007034547161310911,-7.043860023259185e-06,0.07558633387088776,-7.0345467975130305e-06,-9.313225746154785e-09,0.0,0.014611629769206047,0.3885820806026459,0.8987155746184452,-1.062504768371582,1.0765604972839355,-1.0478930473327637,1.2209880352020264,2.406125545501709,0.9979085922241211,,,,,,,
4635592000.0,107.94,-2.5799999237060547,12041169408.0,1665.419290820678,73.0,-0.01127270981669426,303104.0,662.9142601490021,0.0,0.0,0.0023500300012528896,-2.3504024284193292e-05,0.09055212885141373,-2.350029899389483e-05,-3.725290298461914e-09,0.0,-0.004312146455049515,0.4255935847759247,0.8678867404579342,-0.9856466054916382,1.0629240274429321,-0.9899587631225586,1.1709054708480835,2.4594407081604004,0.9979362487792969,,,,,,,
4635592000.0,108.17,-2.630000114440918,12041169408.0,1669.043713636939,74.0,-0.013287978246808052,307200.0,665.368360042572,0.0,0.0,0.0007818785961717367,-7.820648534107022e-06,0.09990014135837555,-7.818785888957791e-06,-1.862645149230957e-09,0.0,-0.06192966178059578,0.44273340702056885,0.8494702346139795,-1.0738706588745117,1.01645028591156,-1.1358002424240112,1.1411194801330566,2.4540998935699463,0.997795581817627,,,,,,,
4635592000.0,109.96,-2.4000000953674316,12041169408.0,1711.804565032927,75.0,-0.007662059739232063,311296.0,667.7611565589905,0.0,0.0,0.0014993601944297552,-1.4991738680691924e-05,0.0890454575419426,-1.4993601325841155e-05,1.862645149230957e-09,0.0,0.07728947699069977,0.414920836687088,0.863339738893606,-0.9032045006752014,1.0789614915847778,-0.8259149789810181,1.1223907470703125,2.392796516418457,0.9984676837921143,,,,,,,
4635592000.0,110.37,-2.3299999237060547,12041169408.0,1704.3003638976832,76.0,-0.011300645768642426,315392.0,670.1644887924194,0.0,0.0,0.0024463078007102013,-2.4455626771668904e-05,0.07711964845657349,-2.4463077352265827e-05,7.450580596923828e-09,0.0,0.034715618938207626,0.39124351739883423,0.8863336378566021,-0.9383232593536377,1.0761924982070923,-0.9036076068878174,1.1604626178741455,2.403332233428955,0.9984934329986572,,,,,,,
4635592000.0,108.07,-1.8300000429153442,12041169408.0,1648.9561715054172,77.0,-0.0067966231144964695,319488.0,672.6484844684601,2.0816681711721685e-17,0.0,0.006947455927729607,-6.947921792743728e-05,0.06921768188476562,-6.94745613145642e-05,-4.6566128730773926e-09,0.0,0.03332404047250748,0.3706189692020416,0.8446410401098898,-0.7046175599098206,0.8482498526573181,-0.6712935566902161,0.9402849078178406,2.4839956760406494,0.9980323314666748,,,,,,,
4635592000.0,109.88,-1.940000057220459,12041169408.0,1667.2344672587303,78.0,-0.011721806600689888,323584.0,675.1052474975586,2.7755575615628914e-17,0.0,0.005366254597902298,-5.365695687942207e-05,0.08652888238430023,-5.366254481486976e-05,5.587935447692871e-09,0.0,-0.01723719947040081,0.4156956076622009,0.8841971963416857,-1.0238021612167358,1.1046233177185059,-1.0410394668579102,1.2215631008148193,2.4567630290985107,0.9981322288513184,,,,,,,
4635592000.0,109.22,-2.1500000953674316,12041169408.0,1594.9238686352028,79.0,-0.015963910147547722,327680.0,677.6733951568604,2.0122792321330962e-16,0.0,0.01075701043009758,-0.00010757196287158877,0.13545596599578857,-0.00010757010022643954,-1.862645149230957e-09,0.0,-0.03812877833843231,0.5191569328308105,0.887534016476319,-1.276838779449463,1.4225053787231445,-1.3149676322937012,1.5480610132217407,2.568147659301758,0.9982635974884033,,,,,,,
4635592000.0,118.34,-3.1700000762939453,12041169408.0,1748.5387869160263,80.0,-0.013437291607260704,331776.0,680.0159225463867,1.0269562977782698e-15,0.0,0.04174590855836868,-0.00041744697955437005,0.09048387408256531,-0.00041745908674784005,1.210719347000122e-08,0.0,0.04452066123485565,0.42311859130859375,0.8901893729460841,-1.020129680633545,1.2221816778182983,-0.9756090044975281,1.2768502235412598,2.342527389526367,0.9981706142425537,,,,,,,
4635592000.0,113.3,-3.059999942779541,12041169408.0,1678.9366976431868,81.0,-0.01445048488676548,335872.0,682.455561876297,6.730727086790012e-16,0.0,0.03627763316035271,-0.00036277726758271456,0.11694402992725372,-0.00036277633626013994,-9.313225746154785e-10,0.0,0.018524248152971268,0.483323872089386,0.8864612722402616,-1.20514976978302,1.3744443655014038,-1.1866254806518555,1.4343864917755127,2.4396393299102783,0.9980542659759521,,,,,,,
4635592000.0,109.96,-2.7300000190734863,12041169408.0,1652.5623071715402,82.0,-0.011186067014932632,339968.0,684.9341371059418,2.2898349882893854e-16,0.0,0.04153009504079819,-0.0004152953624725342,0.0753854513168335,-0.00041530095040798187,5.587935447692871e-09,0.0,0.04688546434044838,0.3854982852935791,0.8824159717221786,-0.7914727926254272,1.0840271711349487,-0.7445873022079468,1.1242121458053589,2.4785752296447754,0.9978489875793457,,,,,,,
4635592000.0,114.85,-2.680000066757202,12041169408.0,1709.809072586725,83.0,-0.009805502369999886,344064.0,687.3297262191772,1.3183898417423734e-16,0.0,0.005996214225888252,-5.997704283799976e-05,0.08959939330816269,-5.9962141676805913e-05,-1.4901161193847656e-08,0.0,0.05685535445809364,0.4195345342159271,0.8850185088101159,-0.9402313232421875,1.1714789867401123,-0.8833760023117065,1.2372394800186157,2.3955891132354736,0.9979832172393799,,,,,,,
4635592000.0,113.76,-2.190000057220459,12041169408.0,1707.506245067774,84.0,-0.010567734949290752,348160.0,689.7285461425781,1.5265566588595902e-16,0.0,0.005598739720880985,-5.598925781669095e-05,0.08894546329975128,-5.598739517154172e-05,-1.862645149230957e-09,0.0,0.025809209793806076,0.4210321605205536,0.8806893415625432,-0.7637010216712952,1.1379436254501343,-0.7378917932510376,1.218921184539795,2.398819923400879,0.9980432987213135,,,,,,,
4635592000.0,105.25,-2.200000047683716,12041169408.0,1650.0397658769755,85.0,-0.010438298806548119,352256.0,692.2109105587006,6.938893903907228e-18,0.0,0.002630391623824835,-2.630764174682554e-05,0.07173526287078857,-2.6303916456527077e-05,-3.725290298461914e-09,0.0,-0.050168152898550034,0.3754838705062866,0.9045381209988287,-0.7373968362808228,1.143070101737976,-0.7875649333000183,1.2152796983718872,2.4823644161224365,0.9978342056274414,,,,,,,
4635592000.0,107.62,-2.1700000762939453,12041169408.0,1664.846515972037,86.0,-0.0054140398278832436,356352.0,694.6711974143982,1.3877787807814457e-16,0.0,0.00258219288662076,-2.5829378500930034e-05,0.0522153414785862,-2.582192792033311e-05,-7.450580596923828e-09,0.0,0.0137200728058815,0.32290542125701904,0.8593566781187293,-0.41407275199890137,0.8073762655258179,-0.40035268664360046,0.8610250353813171,2.460286855697632,0.9980247020721436,,,,,,,
4635592000.0,109.59,-1.8200000524520874,12041169408.0,1691.504720495916,87.0,-0.009462172165513039,360448.0,697.092710018158,6.938893903907228e-18,0.0,0.0019699488766491413,-1.96994878933765e-05,0.060526296496391296,-1.96994878933765e-05,0.0,0.0,-0.018055932596325874,0.3474997282028198,0.8649079764028126,-0.39303162693977356,0.8681640625,-0.4110875427722931,0.9454522728919983,2.4215126037597656,0.9981069564819336,,,,,,,
4635592000.0,114.56,-1.6399999856948853,12041169408.0,1669.8673528143602,88.0,-0.006437607575207949,364544.0,699.5455994606018,2.7755575615628914e-17,0.0,0.0017388376872986555,-1.7388376363669522e-05,0.0507158599793911,-1.7388376363669522e-05,0.0,0.0,0.008318502455949783,0.3184136748313904,0.887612937158674,-0.41165998578071594,0.8724949955940247,-0.40334150195121765,0.9498030543327332,2.4528894424438477,0.9979798793792725,,,,,,,
4635592000.0,109.82,-1.7200000286102295,12041169408.0,1755.972465978541,89.0,-0.011493310332298279,368640.0,701.878210067749,0.0,0.0,0.002495937515050173,-2.493795363989193e-05,0.06395409256219864,-2.4959374059108086e-05,2.1420419216156006e-08,0.0,-0.08572617173194885,0.3472587764263153,0.8833936837624345,-0.5489416122436523,0.9288819432258606,-0.6346677541732788,1.016932487487793,2.332610607147217,0.9980669021606445,,,,,,,
4635592000.0,115.12,-2.200000047683716,12041169408.0,1616.7079269731798,90.0,-0.010237583890557289,372736.0,704.41175365448,4.85722573273506e-17,0.0,0.006597825791686773,-6.59801225992851e-05,0.08486796915531158,-6.597825995413586e-05,-1.862645149230957e-09,0.0,-0.06956823915243149,0.40612372756004333,0.8849415251849132,-0.7242498993873596,1.0684877634048462,-0.7938181161880493,1.197288990020752,2.533543586730957,0.9979298114776611,,,,,,,
4635592000.0,120.51,-2.4600000381469727,12041169408.0,1680.6221503186114,91.0,-0.012003084644675255,376832.0,706.8489463329315,6.938893903907228e-17,0.0,0.0031368588097393513,-3.136486338917166e-05,0.08258529007434845,-3.136858867947012e-05,3.725290298461914e-09,0.0,-0.0014468561857938766,0.40645888447761536,0.8964110530827563,-0.7134228944778442,1.1748141050338745,-0.7148697376251221,1.262873649597168,2.437192678451538,0.9981153011322021,,,,,,,
4635592000.0,118.92,-2.3299999237060547,12041169408.0,1695.330019421446,92.0,-0.007967203855514526,380928.0,709.264995098114,2.636779683484747e-16,0.0,0.0069447788409888744,-6.945151108084247e-05,0.06271827220916748,-6.9447785790544e-05,-3.725290298461914e-09,0.0,0.013661036267876625,0.3539498448371887,0.8532209090627771,-0.5906087160110474,0.8675447702407837,-0.5769476294517517,0.923867404460907,2.416048765182495,0.9980361461639404,,,,,,,
4635592000.0,110.15,-2.1700000762939453,12041169408.0,1685.773142269739,93.0,-0.011141225695610046,385024.0,711.6947407722473,1.734723475976807e-16,0.0,0.02045365422964096,-0.00020453467732295394,0.078168123960495,-0.00020453653996810317,1.862645149230957e-09,0.0,0.010601081885397434,0.39529991149902344,0.9160099265805342,-0.9047749042510986,1.272417664527893,-0.894173800945282,1.363994836807251,2.429745674133301,0.9979221820831299,,,,,,,
4635592000.0,107.96,-2.2200000286102295,12041169408.0,1698.024937237832,94.0,-0.010123169049620628,389120.0,714.1069550514221,1.960237527853792e-16,0.0,0.025086835026741028,-0.0002508553152438253,0.07711166143417358,-0.00025086835375986993,1.30385160446167e-08,0.0,-0.002424245700240135,0.3927532732486725,0.9183044460805909,-1.017932653427124,1.3017019033432007,-1.0203568935394287,1.374107003211975,2.4122142791748047,0.9977319240570068,,,,,,,
4635592000.0,109.56,-2.4600000381469727,12041169408.0,1711.4406578835953,95.0,-0.011397815309464931,393216.0,716.5002603530884,5.342948306008566e-16,0.0,0.03715919703245163,-0.00037158638588152826,0.085878387093544,-0.00037159197381697595,5.587935447692871e-09,0.0,0.01047450490295887,0.4143536686897278,0.9006776390366797,-1.011420488357544,1.2476824522018433,-1.000945806503296,1.3147635459899902,2.3933053016662598,0.9978499412536621,,,,,,,
,,,,,,,,,,,,,,,,,,,,,,,,,,0.002717262366786599,0.1781434714794159,0.12043677270412445,0.002717262366786599,0.1781434714794159,0.12043677270412445,
,,,,,,,,,,,,,,,,,,,,,,,,,,0.0013964584795758128,0.10298189520835876,0.07339446246623993,0.0013964584795758128,0.10298189520835876,0.07339446246623993,
,,,,,,,,,,,,,,,,,,,,,,,,,,0.001715154037810862,0.08792474865913391,0.07213935256004333,0.001715154037810862,0.08792474865913391,0.07213935256004333,
,,,,,,,,,,,,,,,,,,,,,,,,,,0.001500478247180581,0.07844801992177963,0.05811562016606331,0.001500478247180581,0.07844801992177963,0.05811562016606331,
,,,,,,,,,,,,,,,,,,,,,,,,,,0.0009226758265867829,0.06777626276016235,0.05501769855618477,0.0009226758265867829,0.06777626276016235,0.05501769855618477,
,,,,,,,,,,,,,,,,,,,,,,,,,,0.0009831037605181336,0.06353849172592163,0.048660293221473694,0.0009831037605181336,0.06353849172592163,0.048660293221473694,
,,,,,,,,,,,,,,,,,,,,,,,,,,,,,,,,-1.32
4635844000.0,106.37,-2.4800000190734863,11990521856.0,16.79561938989718,96.0,-0.013171819970011711,397312.0,960.3733742237091,5.290906601729262e-16,0.0,0.05745432525873184,-0.0005745395319536328,0.06447504460811615,-0.0005745432572439313,3.725290298461914e-09,0.0,-0.007035410031676292,0.35907110571861267,0.9079060398619523,-0.8479178547859192,1.0713757276535034,-0.8549532890319824,1.1832183599472046,243.87311387062073,0.9977824687957764,,,,,,,
4635844000.0,102.25,-2.180000066757202,12041169408.0,1690.6418016434975,97.0,-0.010894173756241798,401408.0,962.7961227893829,1.1223660889569942e-15,0.0,0.10020443797111511,-0.0010020443005487323,0.0438641756772995,-0.0010020443005487323,0.0,0.0,0.0005345041863620281,0.2962254285812378,0.938890878527865,-0.832507848739624,1.1015167236328125,-0.8319733142852783,1.198310375213623,2.422748565673828,0.9977052211761475,,,,,,,
4635844000.0,102.38,-2.2200000286102295,12041169408.0,1722.879033415383,98.0,-0.010772468522191048,405504.0,965.173538684845,7.025630077706069e-16,0.0,0.058584924787282944,-0.000585860398132354,0.03973925858736038,-0.0005858492222614586,-1.1175870895385742e-08,0.0,0.045801058411598206,0.2782079577445984,0.948227592011917,-0.9058022499084473,1.1484248638153076,-0.8600012063980103,1.2227013111114502,2.377415895462036,0.997866153717041,,,,,,,
4635844000.0,106.5,-2.3399999141693115,12041169408.0,1716.670918473898,99.0,-0.014829102903604507,409600.0,967.559552192688,1.6046192152785466e-15,0.0,0.12223704159259796,-0.0012223704252392054,0.05246409773826599,-0.0012223704252392054,0.0,0.0,-0.03547786548733711,0.3220168352127075,0.9473230814447935,-1.085511326789856,1.3271039724349976,-1.1209893226623535,1.4030346870422363,2.3860135078430176,0.9979805946350098,,,,,,,
4635844000.0,116.52,-2.7699999809265137,12041169408.0,1696.7041403451665,100.0,-0.012030167505145073,413696.0,969.9736442565918,1.3461454173580023e-15,0.0,0.07920725643634796,-0.0007920576608739793,0.06660106778144836,-0.0007920725620351732,1.4901161193847656e-08,0.0,0.04516802728176117,0.3622071444988251,0.937968213441395,-1.0734885931015015,1.3909629583358765,-1.028320550918579,1.4542862176895142,2.4140920639038086,0.9992525577545166,,,,,,,
4635844000.0,112.48,-2.680000066757202,12041169408.0,1647.3046978841273,101.0,-0.009125571697950363,417792.0,972.4601302146912,3.282096816548119e-15,0.0,0.3257632255554199,-0.0032576248049736023,0.07368677854537964,-0.0032576322555541992,7.450580596923828e-09,0.0,0.052044130861759186,0.38039496541023254,0.8828411968802335,-0.7720558643341064,1.120284914970398,-0.7200117111206055,1.111340880393982,2.4864859580993652,0.9977536201477051,,,,,,,
4635844000.0,113.04,-2.2200000286102295,12041169408.0,1643.147938096656,102.0,-0.006346289999783039,421888.0,974.952906370163,4.834674327547361e-15,0.0,0.39345458149909973,-0.003934555221349001,0.06448587775230408,-0.003934545908123255,-9.313225746154785e-09,0.0,0.07489574700593948,0.35127267241477966,0.8984370688590343,-0.6392781734466553,1.1087656021118164,-0.5643824338912964,1.1022416353225708,2.4927761554718018,0.997570276260376,,,,,,,
4635844000.0,106.28,-2.140000104904175,12041169408.0,1729.9690298948578,103.0,-0.014466972090303898,425984.0,977.3205788135529,2.1718737919229625e-15,0.0,0.1490367352962494,-0.0014903692062944174,0.09052996337413788,-0.0014903673436492682,-1.862645149230957e-09,0.0,0.009430468082427979,0.42545878887176514,0.9201964518758678,-1.0903058052062988,1.4402542114257812,-1.0808753967285156,1.50607430934906,2.3676724433898926,0.9976866245269775,,,,,,,
4635844000.0,105.59,-1.9800000190734863,12041169408.0,1716.7913449074065,104.0,-0.009139514528214931,430080.0,979.7064249515533,2.7269853042355408e-15,0.0,0.16366736590862274,-0.001636684755794704,0.03341413289308548,-0.0016366735799238086,-1.1175870895385742e-08,0.0,0.044908247888088226,0.25461211800575256,0.9510376361878555,-0.5534862279891968,1.1314181089401245,-0.5085780024528503,1.1506624221801758,2.3858461380004883,0.9978079795837402,,,,,,,
4635844000.0,105.33,-1.9600000381469727,12041169408.0,1722.0768509209372,105.0,-0.007242485880851746,434176.0,982.0849483013153,1.3877787807814457e-15,0.0,0.1401439905166626,-0.001401436165906489,0.033238377422094345,-0.0014014398911967874,3.725290298461914e-09,0.0,1.1109746992588043e-05,0.2578623592853546,0.9356531067426993,-0.5490107536315918,0.999671995639801,-0.5489996671676636,1.016539216041565,2.378523349761963,0.9977555274963379,,,,,,,
4635844000.0,101.2,-1.4800000190734863,12041169408.0,1695.5078749933384,106.0,-0.009283149614930153,438272.0,984.5007436275482,1.9359513991901167e-15,0.0,0.0900210365653038,-0.0009002103470265865,0.04392564669251442,-0.0009002103470265865,0.0,0.0,0.009341666474938393,0.29628613591194153,0.9165400730949171,-0.4833689332008362,0.9914872646331787,-0.47402724623680115,1.025586485862732,2.41579532623291,0.9980945587158203,,,,,,,
4635844000.0,110.17,-1.7799999713897705,12041169408.0,1670.4119166032235,107.0,-0.008904153481125832,442368.0,986.9528334140778,6.158268339717665e-16,0.0,0.05103533715009689,-0.0005103589501231909,0.04818413779139519,-0.0005103533621877432,-5.587935447692871e-09,0.0,-0.050280869007110596,0.30637070536613464,0.9444320281929088,-0.5875701308250427,1.23945152759552,-0.6378509998321533,1.299675703048706,2.452089786529541,0.9983210563659668,,,,,,,
4635844000.0,118.13,-2.1600000858306885,12041169408.0,1747.0060871117967,108.0,-0.01220458559691906,446464.0,989.297415971756,7.598088824778415e-16,0.0,0.034074459224939346,-0.00034073341521434486,0.06618883460760117,-0.00034074459108524024,1.1175870895385742e-08,0.0,-0.0738244503736496,0.35631251335144043,0.943276263467729,-0.9151349067687988,1.3960402011871338,-0.9889593124389648,1.4960588216781616,2.3445825576782227,0.997734546661377,,,,,,,
4635844000.0,121.11,-2.369999885559082,12041169408.0,1663.5478152115468,109.0,-0.010165493935346603,450560.0,991.7596235275269,3.122502256758253e-16,0.0,0.013348005712032318,-0.00013348004722502083,0.05204285681247711,-0.00013348004722502083,0.0,0.0,-0.0026856176555156708,0.32265138626098633,0.9353595073564874,-0.6831122040748596,1.2348629236221313,-0.6857978105545044,1.2690571546554565,2.462207555770874,0.9979455471038818,,,,,,,
4635844000.0,118.58,-2.759999990463257,12041169408.0,1674.9977657426614,110.0,-0.014600559137761593,454656.0,994.204999923706,1.1796119636642288e-16,0.0,0.0033918367698788643,-3.3910917409230024e-05,0.041612714529037476,-3.391836798982695e-05,7.450580596923828e-09,0.0,-0.04285880923271179,0.2853216230869293,0.9618509676525644,-0.8971942067146301,1.3910454511642456,-0.9400530457496643,1.4608073234558105,2.445376396179199,0.9978466033935547,,,,,,,
4635844000.0,112.54,-2.619999885559082,12041169408.0,1612.7228830973527,111.0,-0.009780846536159515,458752.0,996.7448039054871,2.7755575615628914e-16,0.0,0.004306526854634285,-4.303546666051261e-05,0.03929247334599495,-4.3065268982900307e-05,2.9802322387695312e-08,0.0,-0.026802195236086845,0.2790799140930176,0.9403859009766076,-0.634412944316864,1.0722744464874268,-0.6612151861190796,1.143020749092102,2.539803981781006,0.9979438781738281,,,,,,,
4635844000.0,111.57,-2.4200000762939453,12041169408.0,1719.3754860425279,112.0,-0.009524330496788025,462848.0,999.1270642280579,0.0,0.0,0.0008497801027260721,-8.49826665216824e-06,0.0481051504611969,-8.497800990880933e-06,-4.656612873077393e-10,0.0,0.008823612704873085,0.31009018421173096,0.9497164241041286,-0.7786266803741455,1.3020106554031372,-0.7698031067848206,1.3828495740890503,2.382260322570801,0.9980051517486572,,,,,,,
4635844000.0,115.57,-2.319999933242798,12041169408.0,1701.1102040654664,113.0,-0.011430218815803528,466944.0,1001.5349035263062,0.0,0.0,0.0006644120439887047,-6.653433501924155e-06,0.03897305205464363,-6.6441202761780005e-06,-9.313225746154785e-09,0.0,0.008915377780795097,0.27907997369766235,0.9636457551175945,-0.9350276589393616,1.4049936532974243,-0.9261122941970825,1.4636969566345215,2.407839298248291,0.9976654052734375,,,,,,,
4635844000.0,109.89,-2.049999952316284,12041169408.0,1724.482007432795,114.0,-0.009657608345150948,471040.0,1003.9101095199585,0.0,0.0,5.320621494320221e-05,-5.506885827344377e-07,0.05459713935852051,-5.320621312421281e-07,-1.862645149230957e-08,0.0,0.04141321778297424,0.32788029313087463,0.9548031637994174,-1.0417964458465576,1.498113751411438,-1.0003832578659058,1.5422730445861816,2.3752059936523438,0.9976191520690918,,,,,,,
4635844000.0,112.93,-2.4200000762939453,12041169408.0,1654.5381914719753,115.0,-0.01484675332903862,475136.0,1006.3857247829437,0.0,0.0,0.00014503940474241972,-1.4503940519716707e-06,0.0650792270898819,-1.4503940519716707e-06,0.0,0.0,0.030479831621050835,0.3595288097858429,0.951835428787292,-1.1645017862319946,1.5816617012023926,-1.1340219974517822,1.6382111310958862,2.4756152629852295,0.997976541519165,,,,,,,
4635844000.0,115.11,-2.5899999141693115,12041169408.0,1684.4021296574,116.0,-0.012310266494750977,479232.0,1008.8174481391907,0.0,0.0,6.029016731190495e-05,-5.935884246355272e-07,0.0640939399600029,-6.02901650381682e-07,9.313225746154785e-09,0.0,0.03077266737818718,0.3567519783973694,0.9493454390571405,-1.3284043073654175,1.5513195991516113,-1.2976316213607788,1.58510160446167,2.4317233562469482,0.9981706142425537,,,,,,,
4635844000.0,113.62,-2.609999895095825,12041169408.0,1682.4106625301376,117.0,-0.011035426519811153,483328.0,1011.2520499229431,0.0,0.0,6.783536809962243e-05,-6.783536719012773e-07,0.0568879172205925,-6.783536719012773e-07,0.0,0.0,0.042525455355644226,0.3346561789512634,0.9533081684558031,-0.9526805877685547,1.524435043334961,-0.9101551175117493,1.5487395524978638,2.4346017837524414,0.9979250431060791,,,,,,,
4635844000.0,105.31,-2.5199999809265137,12041169408.0,1725.6042532551442,118.0,-0.013704919256269932,487424.0,1013.6257112026215,0.0,0.0,2.6707735742093064e-05,-2.633520637118636e-07,0.06036058068275452,-2.670773540103255e-07,3.725290298461914e-09,0.0,-0.013518396764993668,0.3472288250923157,0.9485544027732081,-1.1337939500808716,1.4763821363449097,-1.1473122835159302,1.5308817625045776,2.3736612796783447,0.9981176853179932,,,,,,,
4635844000.0,109.08,-2.5399999618530273,12041169408.0,1695.4426179096554,119.0,-0.008502587676048279,491520.0,1016.0415995121002,0.0,0.0,1.0482709512871224e-05,-1.0482709456027806e-07,0.03936260566115379,-1.0482709456027806e-07,0.0,0.0,0.0357266403734684,0.2783302664756775,0.956415361153812,-0.7198694944381714,1.3323496580123901,-0.6841428279876709,1.3331949710845947,2.4158883094787598,0.9977571964263916,,,,,,,
4635844000.0,116.92,-2.450000047683716,12041169408.0,1746.4555408807896,120.0,-0.009522708132863045,495616.0,1018.3869211673737,0.0,0.0,8.896759027265944e-06,-9.269287915003588e-08,0.03732436150312424,-8.896758885157396e-08,-3.725290298461914e-09,0.0,0.006015736144036055,0.2731862962245941,0.9441321539279764,-0.6544368267059326,1.1076552867889404,-0.648421049118042,1.1557873487472534,2.3453216552734375,0.9977426528930664,,,,,,,
4635844000.0,122.33,-2.5299999713897705,12041169408.0,1665.405890909267,121.0,-0.013200400397181511,499712.0,1020.8463816642761,0.0,0.0,2.9883303795941174e-06,-2.6158012644827977e-08,0.06519251316785812,-2.988330294328989e-08,3.725290298461914e-09,0.0,-0.041443049907684326,0.35874632000923157,0.95018619980945,-0.9754851460456848,1.5671906471252441,-1.0169281959533691,1.6073579788208008,2.459460496902466,0.9978656768798828,,,,,,,
4635844000.0,117.87,-2.7799999713897705,12041169408.0,1683.5640935182878,122.0,-0.016733897849917412,503808.0,1023.2793154716492,0.0,0.0,1.951083049789304e-06,-1.951083028473022e-08,0.054172053933143616,-1.951083028473022e-08,0.0,0.0,-0.013143547810614109,0.32893428206443787,0.9552460666682098,-1.079649567604065,1.5408785343170166,-1.0927931070327759,1.5548681020736694,2.432933807373047,0.9977951049804688,,,,,,,
4635844000.0,122.01,-3.2200000286102295,12041169408.0,1650.3943573374997,123.0,-0.011899977922439575,507904.0,1025.7611465454102,0.0,0.0,2.8687639996860526e-07,-1.2181989639259427e-08,0.058137424290180206,-2.868763893104642e-09,-9.313225746154785e-09,0.0,-0.03760693594813347,0.3389522433280945,0.9486705993456647,-0.8980468511581421,1.464515209197998,-0.935653805732727,1.4960819482803345,2.4818310737609863,0.9980299472808838,,,,,,,
4635844000.0,118.76,-3.240000009536743,12041169408.0,1635.912532289998,124.0,-0.01151799876242876,512000.0,1028.2649478912354,0.0,0.0,1.4685908809042303e-06,-7.235327892374244e-09,0.05428308993577957,-1.4685908489298072e-08,7.450580596923828e-09,0.0,-0.04876086115837097,0.32590562105178833,0.9549829751203591,-0.8486737608909607,1.4772415161132812,-0.897434651851654,1.536043405532837,2.5038013458251953,0.9979064464569092,,,,,,,
4635844000.0,123.44,-2.9200000762939453,12041169408.0,1658.5328286772742,125.0,-0.008861406706273556,516096.0,1030.7346005439758,0.0,0.0,3.348069640196627e-06,-3.72059858477769e-08,0.03819253295660019,-3.348069554931499e-08,-3.725290298461914e-09,0.0,0.0014821379445493221,0.27640825510025024,0.9609748310966477,-0.7280021905899048,1.373199462890625,-0.7265200614929199,1.3991961479187012,2.4696526527404785,0.9978535175323486,,,,,,,
4635844000.0,115.88,-2.630000114440918,12041169408.0,1644.9956642831282,126.0,-0.01568783074617386,520192.0,1033.2245767116547,0.0,0.0,1.8763772686725133e-06,-1.9695095332394885e-08,0.047063957899808884,-1.8763772757779407e-08,-9.313225746154785e-10,0.0,-0.012623332440853119,0.3065803349018097,0.9650087131881241,-1.0599493980407715,1.5942033529281616,-1.0725727081298828,1.6389448642730713,2.489976167678833,0.9980025291442871,,,,,,,
4635844000.0,116.17,-2.6600000858306885,12041169408.0,1677.9659210144757,127.0,-0.012266360223293304,524288.0,1035.6656274795532,0.0,0.0,7.261685368575854e-07,-1.005565231082528e-08,0.04296664148569107,-7.261685031068055e-09,-2.7939677238464355e-09,0.0,0.024669628590345383,0.29213955998420715,0.9574905249329315,-0.895398736000061,1.4127346277236938,-0.8707290291786194,1.4169270992279053,2.4410507678985596,0.9978928565979004,,,,,,,
,,,,,,,,,,,,,,,,,,,,,,,,,,0.00039788128924556077,0.20845739543437958,0.09723090380430222,0.00039788128924556077,0.20845739543437958,0.09723090380430222,
,,,,,,,,,,,,,,,,,,,,,,,,,,6.290669261943549e-05,0.09250229597091675,0.06993760168552399,6.290669261943549e-05,0.09250229597091675,0.06993760168552399,
,,,,,,,,,,,,,,,,,,,,,,,,,,5.0708877097349614e-05,0.07759644836187363,0.05829247832298279,5.0708877097349614e-05,0.07759644836187363,0.05829247832298279,
,,,,,,,,,,,,,,,,,,,,,,,,,,4.101083686691709e-05,0.06479159742593765,0.04850877821445465,4.101083686691709e-05,0.06479159742593765,0.04850877821445465,
,,,,,,,,,,,,,,,,,,,,,,,,,,2.5987350454670377e-05,0.058212872594594955,0.04108741879463196,2.5987350454670377e-05,0.058212872594594955,0.04108741879463196,
,,,,,,,,,,,,,,,,,,,,,,,,,,2.9934892154415138e-05,0.06339878588914871,0.047897763550281525,2.9934892154415138e-05,0.06339878588914871,0.047897763550281525,
,,,,,,,,,,,,,,,,,,,,,,,,,,,,,,,,-1.63
4635852000.0,112.55,-2.7799999713897705,11990521856.0,16.79227895299891,128.0,-0.012260137125849724,528384.0,1279.5872542858124,0.0,0.0,0.00014944971189834177,-1.494497041676368e-06,0.029625173658132553,-1.494497041676368e-06,0.0,0.0,0.011894270777702332,0.24315284192562103,0.9758665210698253,-1.1259424686431885,1.544753909111023,-1.1140481233596802,1.565198302268982,243.92162680625916,0.997997522354126,,,,,,,
4635852000.0,116.38,-2.6500000953674316,12041169408.0,1655.1861755639864,129.0,-0.010745327919721603,532480.0,1282.0619003772736,0.0,0.0,0.0005235248245298862,-5.234316631685942e-06,0.037269387394189835,-5.235247954260558e-06,9.313225746154785e-10,0.0,0.009576600976288319,0.27288320660591125,0.9699860511995433,-0.9128495454788208,1.4972387552261353,-0.9032729864120483,1.575125813484192,2.4746460914611816,0.9978210926055908,,,,,,,
4635852000.0,113.03,-2.369999885559082,12041169408.0,1693.4408322250642,130.0,-0.009103920310735703,536576.0,1284.4806444644928,0.0,0.0,0.0002226038050139323,-2.222312787125702e-06,0.02769085019826889,-2.226038077424164e-06,3.725290298461914e-09,0.0,0.05643642321228981,0.22849372029304504,0.9741546541657502,-0.8806610703468323,1.4381743669509888,-0.8242246508598328,1.4212912321090698,2.4187440872192383,0.9978132247924805,,,,,,,
4635852000.0,111.42,-2.2100000381469727,12041169408.0,1686.7975261030958,131.0,-0.009359685704112053,540672.0,1286.90891456604,0.0,0.0,0.00010185300197917968,-1.033431203723012e-06,0.030429881066083908,-1.0185300425291643e-06,-1.4901161193847656e-08,0.0,0.05119682848453522,0.24135631322860718,0.9700355008950821,-0.7627588510513306,1.3573853969573975,-0.7115620374679565,1.3942965269088745,2.428270101547241,0.9979236125946045,,,,,,,
4635852000.0,112.82,-1.899999976158142,12041169408.0,1701.5937640768834,132.0,-0.009740551933646202,544768.0,1289.3160696029663,0.0,0.0,0.0002255991566926241,-2.2448157324106432e-06,0.02254166267812252,-2.255991603306029e-06,1.1175870895385742e-08,0.0,0.030635470524430275,0.21013225615024567,0.9753952946636866,-0.7743790149688721,1.3217389583587646,-0.7437435388565063,1.3396263122558594,2.4071550369262695,0.9979751110076904,,,,,,,
4635852000.0,115.51,-2.0299999713897705,12041169408.0,1685.9759671030022,133.0,-0.010750189423561096,548864.0,1291.7455229759216,0.0,0.0,9.371974010718986e-05,-9.334721084997e-07,0.03434240072965622,-9.371973987981619e-07,3.725290298461914e-09,0.0,0.0129028195515275,0.26179203391075134,0.9761667848081411,-1.0319130420684814,1.63309645652771,-1.0190101861953735,1.6957625150680542,2.4294533729553223,0.9979429244995117,,,,,,,
4635852000.0,119.61,-2.4600000381469727,12041169408.0,1628.6341839835975,134.0,-0.014145972207188606,552960.0,1294.2605137825012,0.0,0.0,0.0006734529742971063,-6.729872893629363e-06,0.040775470435619354,-6.73452950650244e-06,4.6566128730773926e-09,0.0,-0.015387614257633686,0.28519120812416077,0.9730632851870018,-1.209652066230774,1.6813915967941284,-1.2250397205352783,1.7376559972763062,2.51499080657959,0.9977562427520752,,,,,,,
4635852000.0,114.92,-2.740000009536743,12041169408.0,1592.7275011621066,135.0,-0.01388225331902504,557056.0,1296.832202911377,0.0,0.0,7.093504973454401e-05,-7.093505018929136e-07,0.03405989706516266,-7.093505018929136e-07,0.0,0.0,-0.009112999774515629,0.26087039709091187,0.9784177098082033,-1.0961034297943115,1.7226585149765015,-1.1052165031433105,1.775726318359375,2.5716891288757324,0.9980900287628174,,,,,,,
4635852000.0,116.27,-2.8399999141693115,12041169408.0,1665.6695697498142,136.0,-0.010474280454218388,561152.0,1299.2912740707397,0.0,0.0,0.00011746199015760794,-1.1848644589917967e-06,0.024798916652798653,-1.1746199106710264e-06,-1.0244548320770264e-08,0.0,0.030018581077456474,0.22070027887821198,0.9786437438118293,-0.6949582099914551,1.5193312168121338,-0.6649396419525146,1.5102204084396362,2.459071159362793,0.9978840351104736,,,,,,,
4635852000.0,107.95,-2.5,12041169408.0,1666.1095970971069,137.0,-0.012114524841308594,565248.0,1301.749695777893,2.7755575615628914e-17,0.0,0.00013047152606304735,-1.3158911542632268e-06,0.027690580114722252,-1.304715283367841e-06,-1.1175870895385742e-08,0.0,-0.01804743893444538,0.23466762900352478,0.9711775278615221,-0.7632944583892822,1.35880446434021,-0.7813419103622437,1.3822530508041382,2.4584217071533203,0.9982502460479736,,,,,,,
4635852000.0,112.97,-2.700000047683716,12041169408.0,1651.704829446718,138.0,-0.01261183898895979,569344.0,1304.2295577526093,0.0,0.0,0.0001390998950228095,-1.387273641739739e-06,0.03267949819564819,-1.390998932038201e-06,3.725290298461914e-09,0.0,-0.011000871658325195,0.25544846057891846,0.9769568866434333,-1.0290409326553345,1.6605879068374634,-1.0400418043136597,1.6828008890151978,2.4798619747161865,0.9979534149169922,,,,,,,
4635852000.0,113.79,-2.9600000381469727,12041169408.0,1659.5965047742743,139.0,-0.01538119651377201,573440.0,1306.697627544403,0.0,0.0,5.1898517995141447e-05,-5.115346084494377e-07,0.033266764134168625,-5.189851890463615e-07,7.450580596923828e-09,0.0,-0.00625718105584383,0.2578965127468109,0.9778215687152075,-1.0550105571746826,1.7006323337554932,-1.061267614364624,1.731729507446289,2.4680697917938232,0.9976634979248047,,,,,,,
4635852000.0,120.7,-2.75,12041169408.0,1659.9675660351818,140.0,-0.009453702718019485,577536.0,1309.1651456356049,0.0,0.0,4.398388773552142e-05,-4.5031623585600755e-07,0.02615360915660858,-4.398388568915834e-07,-1.0477378964424133e-08,0.0,-0.013221167959272861,0.2283531278371811,0.9748635207449885,-0.6245805025100708,1.4106301069259644,-0.6378016471862793,1.4403060674667358,2.4675180912017822,0.9980554580688477,,,,,,,
4635852000.0,129.58,-3.119999885559082,12041169408.0,1690.760933244156,141.0,-0.01121075265109539,581632.0,1311.587723493576,0.0,0.0,0.00015475995314773172,-1.5466681588804931e-06,0.030633172020316124,-1.5475994814551086e-06,9.313225746154785e-10,0.0,-0.001958640292286873,0.2475428581237793,0.9751065656824541,-0.7921489477157593,1.5620226860046387,-0.7941075563430786,1.5689460039138794,2.4225778579711914,0.9979202747344971,,,,,,,
4635852000.0,128.6,-2.509999990463257,12041169408.0,1712.8227577852774,142.0,-0.007561979815363884,585728.0,1313.9790976047516,0.0,0.0,5.692851118510589e-05,-5.746401825490466e-07,0.030244842171669006,-5.692850777450076e-07,-5.3551048040390015e-09,0.0,-0.003458948340266943,0.24595220386981964,0.963477284141738,-0.5313254594802856,1.269479513168335,-0.5347843766212463,1.2869722843170166,2.391374111175537,0.9979379177093506,,,,,,,
4635852000.0,121.46,-2.4800000190734863,12041169408.0,1661.7117215793385,143.0,-0.01297246664762497,589824.0,1316.4440257549286,0.0,0.0,5.115206658956595e-05,-5.189712624087406e-07,0.05083406716585159,-5.115206818118168e-07,-7.450580596923828e-09,0.0,-0.016220765188336372,0.3184804320335388,0.9688187887217274,-1.1280584335327148,1.7890911102294922,-1.1442792415618896,1.8035835027694702,2.464928150177002,0.9978358745574951,,,,,,,
4635852000.0,112.52,-2.3299999237060547,12041169408.0,1652.8753644555393,144.0,-0.01119723729789257,593920.0,1318.922131538391,0.0,0.0,8.46118273329921e-05,-8.610194299762952e-07,0.025039127096533775,-8.461182687824476e-07,-1.4901161193847656e-08,0.0,-0.01289247814565897,0.22343730926513672,0.9777568976658603,-0.7364106178283691,1.5150760412216187,-0.7493031024932861,1.4981592893600464,2.4781057834625244,0.9978725910186768,,,,,,,
4635852000.0,108.48,-2.509999990463257,12041169408.0,1691.4649176379291,145.0,-0.010699667036533356,598016.0,1321.3437011241913,0.0,0.0,0.00013531527656596154,-1.3624659231936675e-06,0.02863997407257557,-1.3531526974475128e-06,-9.313225746154785e-09,0.0,0.0015386971645057201,0.23935656249523163,0.9779861147035317,-0.6794227361679077,1.6050198078155518,-0.6778839826583862,1.6132326126098633,2.421569585800171,0.9977469444274902,,,,,,,
4635852000.0,112.26,-2.119999885559082,12041169408.0,1634.5268340829411,146.0,-0.0066759539768099785,602112.0,1323.8496251106262,0.0,0.0,6.107576336944476e-05,-5.958564770480734e-07,0.031542666256427765,-6.107576382419211e-07,1.4901161193847656e-08,0.0,0.009429212659597397,0.25102153420448303,0.9688123215930285,-0.6213490962982178,1.4014322757720947,-0.6119199395179749,1.421410322189331,2.5059239864349365,0.9981391429901123,,,,,,,
4635852000.0,119.04,-2.0999999046325684,12041169408.0,1662.855284029073,147.0,-0.011082593351602554,606208.0,1326.3128581047058,0.0,0.0,2.332614349143114e-05,-2.183602703098586e-07,0.03269056975841522,-2.3326143150370626e-07,1.4901161193847656e-08,0.0,-0.03020317107439041,0.2539382874965668,0.975362014113755,-0.9863744378089905,1.5996172428131104,-1.0165777206420898,1.6178027391433716,2.46323299407959,0.9984698295593262,,,,,,,
4635852000.0,122.78,-2.390000104904175,12041169408.0,1734.3216266405136,148.0,-0.010946519672870636,610304.0,1328.6745884418488,0.0,0.0,3.2671421649865806e-05,-3.304394908809627e-07,0.033900585025548935,-3.267142005825008e-07,-3.725290298461914e-09,0.0,0.012225399725139141,0.26013118028640747,0.9754839968328402,-0.8132432699203491,1.6245081424713135,-0.8010178804397583,1.661374568939209,2.3617303371429443,0.9979152679443359,,,,,,,
4635852000.0,117.55,-2.309999942779541,12041169408.0,1635.355511575559,149.0,-0.008182062767446041,614400.0,1331.1792426109314,0.0,0.0,3.476981873973273e-05,-3.3186569226018037e-07,0.026020731776952744,-3.476981760286435e-07,1.5832483768463135e-08,0.0,0.005184526555240154,0.2280948907136917,0.9626761088275021,-0.7052797079086304,1.181128740310669,-0.7000951766967773,1.1806524991989136,2.5046541690826416,0.9991989135742188,,,,,,,
4635852000.0,115.62,-2.4000000953674316,12041169408.0,1673.1434937936908,150.0,-0.013603055849671364,618496.0,1333.6273291110992,0.0,0.0,5.5260014050872996e-05,-5.581880486715818e-07,0.03197770193219185,-5.526001132238889e-07,-5.587935447692871e-09,0.0,-0.03423076868057251,0.2505972683429718,0.967315137754394,-0.9821277856826782,1.348364233970642,-1.0163586139678955,1.38612699508667,2.4480865001678467,0.997877836227417,,,,,,,
4635852000.0,108.82,-2.4600000381469727,12041169408.0,1689.2226659224066,151.0,-0.012217534705996513,622592.0,1336.0521130561829,0.0,0.0,8.721120684640482e-05,-8.795626058599737e-07,0.029399463906884193,-8.721120252630499e-07,-7.450580596923828e-09,0.0,0.0238463394343853,0.24133896827697754,0.9737103209687543,-0.8844400644302368,1.4667471647262573,-0.8605937957763672,1.4884519577026367,2.424783945083618,0.9978756904602051,,,,,,,
4635852000.0,115.8,-2.930000066757202,12041169408.0,1614.7442104446925,152.0,-0.012596240267157555,626688.0,1338.5887377262115,0.0,0.0,4.1189457988366485e-05,-4.230704462315771e-07,0.03207036107778549,-4.1189457533619134e-07,-1.1175870895385742e-08,0.0,0.010131366550922394,0.2530883252620697,0.9669321063785599,-0.9740868806838989,1.3439841270446777,-0.9639555811882019,1.3917745351791382,2.5366246700286865,0.9979605674743652,,,,,,,
4635852000.0,119.83,-3.0899999141693115,12041169408.0,1637.217260670702,153.0,-0.01460207998752594,630784.0,1341.0905437469482,0.0,0.0,2.2852254915051162e-05,-2.350417958041362e-07,0.03377384692430496,-2.2852253778182785e-07,-6.51925802230835e-09,0.0,0.01286405697464943,0.2596125304698944,0.9711209791734543,-0.9722834825515747,1.4912927150726318,-0.9594193696975708,1.5276871919631958,2.5018060207366943,0.9980425834655762,,,,,,,
4635852000.0,121.53,-2.7300000190734863,12041169408.0,1665.5796221471037,154.0,-0.0055422065779566765,634880.0,1343.5497477054596,0.0,0.0,5.8198307669954374e-05,-5.819830448672292e-07,0.02573532983660698,-5.819830448672292e-07,0.0,0.0,0.02885313890874386,0.2250567078590393,0.9699749650804668,-0.577031135559082,1.300703525543213,-0.5481780171394348,1.2988237142562866,2.4592039585113525,0.9983232021331787,,,,,,,
4635852000.0,113.39,-1.7799999713897705,12041169408.0,1625.04106939489,155.0,-0.006174156442284584,638976.0,1346.0702993869781,0.0,0.0,1.7606820620130748e-05,-1.7234290794476692e-07,0.024102866649627686,-1.7606819824322884e-07,3.725290298461914e-09,0.0,0.027006560936570168,0.21791735291481018,0.9687341291733842,-0.507541298866272,1.2362653017044067,-0.48053470253944397,1.2324137687683105,2.5205516815185547,0.9978868961334229,,,,,,,
4635852000.0,112.18,-1.9500000476837158,12041169408.0,1683.1481089520453,156.0,-0.014618377201259136,643072.0,1348.5038344860077,0.0,0.0,5.786696419818327e-05,-5.898455128772184e-07,0.02900879457592964,-5.786696419818327e-07,-1.1175870895385742e-08,0.0,-0.03859167546033859,0.23778577148914337,0.9698843546424667,-0.9402141571044922,1.3219993114471436,-0.9788058400154114,1.370218276977539,2.433535099029541,0.9976413249969482,,,,,,,
4635852000.0,112.9,-2.3399999141693115,12041169408.0,1693.7022764202313,157.0,-0.011217977851629257,647168.0,1350.922205209732,0.0,0.0,6.724234117427841e-05,-6.696294008179393e-07,0.041189104318618774,-6.724233685417857e-07,2.7939677238464355e-09,0.0,-0.021716952323913574,0.2862281799316406,0.9696503213852691,-1.2150537967681885,1.6119550466537476,-1.2367708683013916,1.6429916620254517,2.4183707237243652,0.9978814125061035,,,,,,,
4635852000.0,115.38,-2.8499999046325684,12041169408.0,1715.8899293173813,158.0,-0.015241032466292381,651264.0,1353.3093047142029,0.0,0.0,3.474673576420173e-05,-3.4933000847559015e-07,0.02803666517138481,-3.474673633263592e-07,-1.862645149230957e-09,0.0,0.013960651122033596,0.2364150434732437,0.9748186680869037,-0.9377892017364502,1.479074239730835,-0.9238286018371582,1.4898267984390259,2.387099504470825,0.9982750415802002,,,,,,,
4635852000.0,116.38,-2.819999933242798,12041169408.0,1682.7707338669984,159.0,-0.007940680719912052,655360.0,1355.74338555336,0.0,0.0,0.00010417939483886585,-1.0511071195651311e-06,0.027066487818956375,-1.0417938938189764e-06,-9.313225746154785e-09,0.0,-0.006100827362388372,0.23261334002017975,0.976135352839489,-0.9281299114227295,1.466731071472168,-0.9342308044433594,1.5057647228240967,2.4340808391571045,0.9978089332580566,,,,,,,
,,,,,,,,,,,,,,,,,,,,,,,,,,1.592873377376236e-05,0.07826004177331924,0.05228285491466522,1.592873377376236e-05,0.07826004177331924,0.05228285491466522,
,,,,,,,,,,,,,,,,,,,,,,,,,,1.6186277207452804e-05,0.04658230394124985,0.041736941784620285,1.6186277207452804e-05,0.04658230394124985,0.041736941784620285,
,,,,,,,,,,,,,,,,,,,,,,,,,,1.3469842997437809e-05,0.0436176098883152,0.03301943466067314,1.3469842997437809e-05,0.0436176098883152,0.03301943466067314,
,,,,,,,,,,,,,,,,,,,,,,,,,,1.8750701201497577e-05,0.04757140576839447,0.03342327103018761,1.8750701201497577e-05,0.04757140576839447,0.03342327103018761,
,,,,,,,,,,,,,,,,,,,,,,,,,,1.492007231718162e-05,0.037021294236183167,0.031264834105968475,1.492007231718162e-05,0.037021294236183167,0.031264834105968475,
,,,,,,,,,,,,,,,,,,,,,,,,,,2.0540270270430483e-05,0.04724325239658356,0.03659815341234207,2.0540270270430483e-05,0.04724325239658356,0.03659815341234207,
,,,,,,,,,,,,,,,,,,,,,,,,,,,,,,,,-2.03
4635852000.0,110.33,-2.5,11990521856.0,16.81817077513266,160.0,-0.011346783488988876,659456.0,1599.2894914150238,0.0,0.0,0.00021533729159273207,-2.1533728613576386e-06,0.016533546149730682,-2.1533728613576386e-06,0.0,0.0,0.0052203163504600525,0.18179084360599518,0.9843316988232816,-0.9075878858566284,1.4502767324447632,-0.9023675322532654,1.4523156881332397,243.54610586166382,0.9979944229125977,,,,,,,
4635852000.0,116.14,-2.2699999809265137,12041169408.0,1653.2194031312868,161.0,-0.01286359690129757,663552.0,1601.7670814990997,0.0,0.0,0.00035694200778380036,-3.5638320241559995e-06,0.016904043033719063,-3.5694199596036924e-06,5.587935447692871e-09,0.0,0.02103222906589508,0.18268518149852753,0.98677533727097,-0.9445700645446777,1.5804531574249268,-0.9235377907752991,1.5885871648788452,2.4775900840759277,0.998058557510376,,,,,,,
4635852000.0,118.7,-2.3299999237060547,12041169408.0,1633.929419418039,162.0,-0.00832463800907135,667648.0,1604.2739217281342,0.0,0.0,0.0002795036416500807,-2.7950363801210187e-06,0.011671019718050957,-2.7950363801210187e-06,0.0,0.0,0.008736495859920979,0.1525496542453766,0.9791298812532404,-0.5251820087432861,1.051163911819458,-0.516445517539978,1.055963158607483,2.506840229034424,0.9976422786712646,,,,,,,
4635852000.0,124.18,-2.4700000286102295,12041169408.0,1693.9554500128477,163.0,-0.009210987016558647,671744.0,1606.6919310092926,5.551115123125783e-17,0.0,0.00024094617401715368,-2.413187075944734e-06,0.016980353742837906,-2.409461785646272e-06,-3.725290298461914e-09,0.0,-0.01605965942144394,0.1836056262254715,0.9855601924898737,-0.8467324376106262,1.5224703550338745,-0.8627921342849731,1.5279364585876465,2.4180092811584473,0.9978947639465332,,,,,,,
4635852000.0,109.1,-2.059999942779541,12041169408.0,1685.662155212989,164.0,-0.012495787814259529,675840.0,1609.1218366622925,0.0,0.0,0.00018361376714892685,-1.8277556819157326e-06,0.014445360749959946,-1.8361375850872719e-06,8.381903171539307e-09,0.0,-0.016413481906056404,0.16919901967048645,0.9841310335733303,-0.793790340423584,1.3185864686965942,-0.8102037906646729,1.3431470394134521,2.429905652999878,0.9976546764373779,,,,,,,
4635852000.0,105.43,-2.2200000286102295,12041169408.0,1679.8869151751364,165.0,-0.010226637125015259,679936.0,1611.560096025467,0.0,0.0,0.00017457024659961462,-1.7568783050592174e-06,0.015061487443745136,-1.7457024341638316e-06,-1.1175870895385742e-08,0.0,0.011467890813946724,0.1732015758752823,0.9860567258136806,-0.7667670845985413,1.4592478275299072,-0.7552992105484009,1.4667952060699463,2.4382593631744385,0.997795820236206,,,,,,,
4635852000.0,109.41,-2.369999885559082,12041169408.0,1647.318597869976,166.0,-0.012492792680859566,684032.0,1614.0465610027313,0.0,0.0,0.00016653386410325766,-1.6699951856935513e-06,0.021193761378526688,-1.665338572820474e-06,-4.6566128730773926e-09,0.0,-0.0071345726028084755,0.20578376948833466,0.9833662261261834,-0.999922513961792,1.5712083578109741,-1.0070570707321167,1.5955694913864136,2.4864649772644043,0.9977829456329346,,,,,,,
4635852000.0,118.47,-2.5899999141693115,12041169408.0,1658.2025800400115,167.0,-0.010848049074411392,688128.0,1616.5167055130005,0.0,0.0,0.0002728783874772489,-2.73064642897225e-06,0.01806967332959175,-2.728783783823019e-06,-1.862645149230957e-09,0.0,-0.03687175363302231,0.18651625514030457,0.9848902708721061,-0.9413721561431885,1.4762840270996094,-0.978243887424469,1.5173590183258057,2.470144510269165,0.9977667331695557,,,,,,,
4635852000.0,126.59,-3.109999895095825,12041169408.0,1713.9115794463924,168.0,-0.013878609985113144,692224.0,1618.90656042099,0.0,0.0,0.0003457671555224806,-3.4623280953383073e-06,0.016839226707816124,-3.45767148246523e-06,-4.6566128730773926e-09,0.0,0.0027527958154678345,0.1835186630487442,0.9851737140874794,-1.0994940996170044,1.5132811069488525,-1.0967413187026978,1.5071762800216675,2.389854907989502,0.9977238178253174,,,,,,,
4635852000.0,123.06,-3.2100000381469727,12041169408.0,1659.685807298384,169.0,-0.015517739579081535,696320.0,1621.3744974136353,0.0,0.0,0.00022075559536460787,-2.2150065888126846e-06,0.017163105309009552,-2.207556008215761e-06,-7.450580596923828e-09,0.0,-0.012453664094209671,0.18487688899040222,0.9817914614996317,-1.076063871383667,1.3585419654846191,-1.0885175466537476,1.3700772523880005,2.4679369926452637,0.99770188331604,,,,,,,
4635852000.0,111.63,-2.890000104904175,12041169408.0,1698.2634564432142,170.0,-0.00934035424143076,700416.0,1623.7863729000092,0.0,0.0,0.0002509279584046453,-2.513004801585339e-06,0.0211472287774086,-2.509279511286877e-06,-3.725290298461914e-09,0.0,0.0021620611660182476,0.20566990971565247,0.9850238056775772,-0.9560192823410034,1.645979881286621,-0.9538572430610657,1.6806217432022095,2.4118754863739014,0.9977364540100098,,,,,,,
4635852000.0,111.84,-2.5,12041169408.0,1706.8426016850779,171.0,-0.011234577745199203,704512.0,1626.1861255168915,0.0,0.0,0.0004413443966768682,-4.409718712850008e-06,0.019560815766453743,-4.41344400314847e-06,3.725290298461914e-09,0.0,0.0007047296967357397,0.19781477749347687,0.9800000410944336,-0.8207377791404724,1.3977940082550049,-0.820033073425293,1.3987631797790527,2.399752616882324,0.9976871013641357,,,,,,,
4635852000.0,112.78,-2.3399999141693115,12041169408.0,1629.7496639920103,172.0,-0.013250336050987244,708608.0,1628.69939494133,0.0,0.0,0.0002835862396750599,-2.832136942743091e-06,0.014099208638072014,-2.835862233041553e-06,3.725290298461914e-09,0.0,0.018443873152136803,0.1669282466173172,0.9853696256187375,-0.9076701998710632,1.3985161781311035,-0.8892263174057007,1.3800733089447021,2.5132694244384766,0.997744083404541,,,,,,,
4635852000.0,104.62,-2.109999895095825,12041169408.0,1657.2991109072432,173.0,-0.009216337464749813,712704.0,1631.170886039734,0.0,0.0,0.00026359560433775187,-2.644337882884429e-06,0.014811325818300247,-2.6359559797128895e-06,-8.381903171539307e-09,0.0,0.014897679910063744,0.17148730158805847,0.9843380269427948,-0.54395991563797,1.3688634634017944,-0.5290622115135193,1.370278000831604,2.4714910984039307,0.9980037212371826,,,,,,,
4635852000.0,103.53,-2.190000057220459,12041169408.0,1708.2976251001942,174.0,-0.008839874528348446,716800.0,1633.5685946941376,4.440892098500626e-16,0.0,0.0002708690008148551,-2.699376636883244e-06,0.016575360670685768,-2.7086898626293987e-06,9.313225746154785e-09,0.0,0.010697233490645885,0.1817810833454132,0.9786316072407956,-0.7254072427749634,1.2456278800964355,-0.714709997177124,1.2435486316680908,2.3977086544036865,0.998260498046875,,,,,,,
4635852000.0,105.65,-1.559999942779541,12041169408.0,1645.5676264000483,175.0,-0.004296364262700081,720896.0,1636.0577054023743,0.0,0.0,0.000325153348967433,-3.2589839520369424e-06,0.011486109346151352,-3.2515333714400185e-06,-7.450580596923828e-09,0.0,-0.0042090644128620625,0.15152591466903687,0.9796540327701627,-0.31952857971191406,1.0643901824951172,-0.32373762130737305,1.0623013973236084,2.4891107082366943,0.9981496334075928,,,,,,,
4635852000.0,113.89,-1.7999999523162842,12041169408.0,1687.0719988498756,176.0,-0.010115581564605236,724992.0,1638.485580444336,0.0,0.0,0.0003396138490643352,-3.3970698041230207e-06,0.013292012736201286,-3.3961384815484053e-06,-9.313225746154785e-10,0.0,0.009903237223625183,0.16276492178440094,0.9861336285075532,-0.7631518840789795,1.370032548904419,-0.7532486319541931,1.3822270631790161,2.42787504196167,0.9976575374603271,,,,,,,
4635852000.0,111.83,-1.8600000143051147,12041169408.0,1634.867787768184,177.0,-0.01339404471218586,729088.0,1640.9909818172455,0.0,0.0,0.00028484209906309843,-2.8391077648848295e-06,0.01473853550851345,-2.8484209906309843e-06,9.313225746154785e-09,0.0,0.0005384054966270924,0.17170900106430054,0.9895901355635155,-1.1659417152404785,1.6716434955596924,-1.165403127670288,1.6829471588134766,2.505401372909546,0.9979069232940674,,,,,,,
4635852000.0,118.59,-2.390000104904175,12041169408.0,1727.2892345727919,178.0,-0.010738898068666458,733184.0,1643.3623275756836,0.0,0.0,0.00033653673017397523,-3.3718865779519547e-06,0.01937703788280487,-3.3653673199296463e-06,-6.51925802230835e-09,0.0,0.0008070576004683971,0.1968829184770584,0.987250320920008,-0.9635851979255676,1.7203431129455566,-0.9627780914306641,1.743646502494812,2.3713457584381104,0.997708797454834,,,,,,,
4635852000.0,119.94,-2.700000047683716,12041169408.0,1696.9699456234534,179.0,-0.008213339373469353,737280.0,1645.776041507721,0.0,0.0,0.0005215275450609624,-5.222726031206548e-06,0.011111689731478691,-5.215275450609624e-06,-7.450580596923828e-09,0.0,-0.010599490255117416,0.14871594309806824,0.9829420507965018,-0.41913118958473206,1.130505084991455,-0.42973068356513977,1.1386600732803345,2.4137139320373535,0.997948169708252,,,,,,,
4635852000.0,107.77,-2.0999999046325684,12041169408.0,1634.565868558591,180.0,-0.01049451157450676,741376.0,1648.2819056510925,0.0,0.0,0.0007775981212034822,-7.779706720612012e-06,0.016697952523827553,-7.77598143031355e-06,-3.725290298461914e-09,0.0,-0.007456345483660698,0.18261559307575226,0.9788988123556186,-0.6651307940483093,1.2066171169281006,-0.6725871562957764,1.2571420669555664,2.505864143371582,0.9977860450744629,,,,,,,
4635852000.0,104.78,-1.6799999475479126,12041169408.0,1737.6723129646514,181.0,-0.006707854103296995,745472.0,1650.639081954956,0.0,0.0,0.000668130349367857,-6.692479018965969e-06,0.01608245074748993,-6.681303148070583e-06,-1.1175870895385742e-08,0.0,-0.007827067747712135,0.17919674515724182,0.9834236608709888,-0.6513417363166809,1.3749239444732666,-0.6591688394546509,1.3918287754058838,2.3571763038635254,0.998084306716919,,,,,,,
4635852000.0,108.38,-2.0199999809265137,12041169408.0,1652.9623546984033,182.0,-0.013541762717068195,749568.0,1653.1170573234558,0.0,0.0,0.00032431771978735924,-3.250627742090728e-06,0.011285844258964062,-3.2431771614938043e-06,-7.450580596923828e-09,0.0,0.007142340298742056,0.15008722245693207,0.9915792379655808,-0.855030357837677,1.6270555257797241,-0.8478879928588867,1.6355658769607544,2.477975368499756,0.9976904392242432,,,,,,,
4635852000.0,108.04,-2.309999942779541,12041169408.0,1653.7036538562054,183.0,-0.010629365220665932,753664.0,1655.5939218997955,0.0,0.0,0.0002350457652937621,-2.3560455701954197e-06,0.012164979241788387,-2.350457634747727e-06,-5.587935447692871e-09,0.0,-0.005213959142565727,0.15591250360012054,0.984987177575453,-0.5702000856399536,1.2620136737823486,-0.5754140615463257,1.2724765539169312,2.4768645763397217,0.9978938102722168,,,,,,,
4635852000.0,102.66,-2.049999952316284,12041169408.0,1600.9678552468022,184.0,-0.00924418494105339,757760.0,1658.1523742675781,0.0,0.0,0.0003939942689612508,-3.94553035221179e-06,0.013126127421855927,-3.939942416764097e-06,-5.587935447692871e-09,0.0,-0.005907941609621048,0.16193749010562897,0.9854600938055231,-0.7124055624008179,1.3352959156036377,-0.718313455581665,1.3429709672927856,2.5584523677825928,0.9981234073638916,,,,,,,
4635852000.0,100.86,-2.0799999237060547,12041169408.0,1711.3641104290507,185.0,-0.012787965126335621,761856.0,1660.5457866191864,0.0,0.0,0.0003303593839518726,-3.3091816931118956e-06,0.01960308849811554,-3.3035937576642027e-06,-5.587935447692871e-09,0.0,-0.0033782818354666233,0.19800083339214325,0.9861245932900948,-1.0255615711212158,1.6708096265792847,-1.028939962387085,1.6809087991714478,2.3934123516082764,0.9980142116546631,,,,,,,
4635852000.0,109.64,-2.059999942779541,12041169408.0,1638.0324262333938,186.0,-0.00823210459202528,765952.0,1663.046347618103,0.0,0.0,0.0002813616883940995,-2.8229301278770436e-06,0.01256430521607399,-2.8136169021308888e-06,-9.313225746154785e-09,0.0,0.0007999078370630741,0.1585373878479004,0.9892430592953876,-0.6006379723548889,1.5172432661056519,-0.5998380780220032,1.528577208518982,2.500560998916626,0.9981362819671631,,,,,,,
4635852000.0,120.58,-2.369999885559082,12041169408.0,1634.8372952429204,187.0,-0.010507846251130104,770048.0,1665.551795721054,0.0,0.0,0.0001565197017043829,-1.5717162114015082e-06,0.01544994581490755,-1.5651969533791998e-06,-6.51925802230835e-09,0.0,0.007728462107479572,0.17563511431217194,0.9872993581133362,-0.7239525318145752,1.532518982887268,-0.716223955154419,1.5584702491760254,2.50544810295105,0.9979331493377686,,,,,,,
4635852000.0,124.07,-2.5,12041169408.0,1698.5535968431577,188.0,-0.013157623820006847,774144.0,1667.9632592201233,1.1102230246251565e-16,0.0,0.0002714295405894518,-2.7142953058501007e-06,0.02745220437645912,-2.7142953058501007e-06,0.0,0.0,0.008404799737036228,0.23419468104839325,0.9869288418663703,-1.3620104789733887,2.0489749908447266,-1.3536055088043213,2.04842472076416,2.411463499069214,0.9978609085083008,,,,,,,
4635852000.0,120.91,-2.7899999618530273,12041169408.0,1672.0343970654503,189.0,-0.012141948565840721,778240.0,1670.4129695892334,0.0,0.0,0.00024397356901317835,-2.450911551932222e-06,0.017927465960383415,-2.4397356810368365e-06,-1.1175870895385742e-08,0.0,0.031667742878198624,0.1867099404335022,0.9855948722223558,-0.7745201587677002,1.5712599754333496,-0.7428524494171143,1.5556390285491943,2.4497103691101074,0.9978516101837158,,,,,,,
4635852000.0,116.81,-2.5,12041169408.0,1564.6360047890248,190.0,-0.007088170852512121,782336.0,1673.030830860138,2.7755575615628914e-17,0.0,0.0005827606073580682,-5.840644462296041e-06,0.013577149249613285,-5.827605946251424e-06,-1.30385160446167e-08,0.0,0.007203284651041031,0.16464820504188538,0.9710766254812897,-0.31275618076324463,0.9521900415420532,-0.3055528998374939,0.968127429485321,2.617861270904541,0.9979987144470215,,,,,,,
4635852000.0,109.54,-2.3399999141693115,12041169408.0,1711.913733239958,191.0,-0.0143045075237751,786432.0,1675.4234747886658,2.7755575615628914e-17,0.0,0.0010810286039486527,-1.0810285857587587e-05,0.01484691072255373,-1.0810285857587587e-05,0.0,0.0,0.0020867795683443546,0.17232736945152283,0.9871220399688212,-1.1023967266082764,1.5323578119277954,-1.1003098487854004,1.5185555219650269,2.392643928527832,0.9982528686523438,,,,,,,
,,,,,,,,,,,,,,,,,,,,,,,,,,9.23665938898921e-05,0.03490675613284111,0.016106881201267242,9.23665938898921e-05,0.03490675613284111,0.016106881201267242,
,,,,,,,,,,,,,,,,,,,,,,,,,,4.290106880944222e-05,0.021532492712140083,0.01336672157049179,4.290106880944222e-05,0.021532492712140083,0.01336672157049179,
,,,,,,,,,,,,,,,,,,,,,,,,,,3.54289986717049e-05,0.018837813287973404,0.012339247390627861,3.54289986717049e-05,0.018837813287973404,0.012339247390627861,
,,,,,,,,,,,,,,,,,,,,,,,,,,3.085548087256029e-05,0.017200615257024765,0.011501545086503029,3.085548087256029e-05,0.017200615257024765,0.011501545086503029,
,,,,,,,,,,,,,,,,,,,,,,,,,,2.9701690436922945e-05,0.017487511038780212,0.011187758296728134,2.9701690436922945e-05,0.017487511038780212,0.011187758296728134,
,,,,,,,,,,,,,,,,,,,,,,,,,,2.88335850200383e-05,0.016534293070435524,0.011041048914194107,2.88335850200383e-05,0.016534293070435524,0.011041048914194107,
,,,,,,,,,,,,,,,,,,,,,,,,,,,,,,,,-1.95
4635868000.0,104.87,-2.390000104904175,11990521856.0,16.81024196937535,192.0,-0.010504978708922863,790528.0,1919.084452867508,5.551115123125783e-17,0.0,0.0020413510501384735,-2.0417235646164045e-05,0.007698117755353451,-2.0413510355865583e-05,-3.725290298461914e-09,0.0,0.0001733633689582348,0.1240965873003006,0.9912201444554831,-0.5885802507400513,1.3032903671264648,-0.5884068012237549,1.3243907690048218,243.66097807884216,0.9979782104492188,,,,,,,
4635868000.0,106.85,-2.559999942779541,12041169408.0,1674.8697417171309,193.0,-0.011516802944242954,794624.0,1921.5300161838531,1.1102230246251565e-16,0.0,0.0036974900867789984,-3.697117426781915e-05,0.01513343770056963,-3.697489955811761e-05,3.725290298461914e-09,0.0,0.030728448182344437,0.17125943303108215,0.9820953690864077,-0.5864489078521729,1.2757235765457153,-0.5557204484939575,1.2798875570297241,2.445563316345215,0.9980158805847168,,,,,,,
4635868000.0,113.1,-2.140000104904175,12041169408.0,1685.0783492854644,194.0,-0.00810711644589901,798720.0,1923.9607636928558,3.95516952522712e-16,0.0,0.006944344844669104,-6.944717461010441e-05,0.005479275248944759,-6.944344931980595e-05,-3.725290298461914e-09,0.0,-0.009644834324717522,0.10425057262182236,0.992404680176243,-0.6439135670661926,1.199857234954834,-0.6535584330558777,1.196204423904419,2.4307475090026855,0.9977881908416748,,,,,,,
4635868000.0,114.94,-2.490000009536743,12041169408.0,1745.3297783058733,195.0,-0.015954386442899704,802816.0,1926.3075981140137,1.457167719820518e-16,0.0,0.009339708834886551,-9.338218660559505e-05,0.01197333075106144,-9.33970877667889e-05,1.4901161193847656e-08,0.0,-0.0062635005451738834,0.15463915467262268,0.9904640963843087,-0.9629172682762146,1.5716450214385986,-0.9691807627677917,1.583574891090393,2.346834421157837,0.9977805614471436,,,,,,,
4635868000.0,110.69,-2.549999952316284,12041169408.0,1643.9416493874453,196.0,-0.010135287418961525,806912.0,1928.7991707324982,3.209238430557093e-16,0.0,0.019799429923295975,-0.00019799242727458477,0.02021416649222374,-0.000197994289919734,1.862645149230957e-09,0.0,-0.011967211961746216,0.20073604583740234,0.9721393519353152,-0.6962435841560364,1.1932172775268555,-0.708210825920105,1.2026236057281494,2.491572618484497,0.997910737991333,,,,,,,
4635868000.0,113.69,-2.25,12041169408.0,1649.940089239581,197.0,-0.007227261550724506,811008.0,1931.2816851139069,1.1171619185290638e-15,0.0,0.021403321996331215,-0.0002140285650966689,0.009219257161021233,-0.00021403322170954198,4.6566128730773926e-09,0.0,8.132494986057281e-05,0.13580504059791565,0.9871236586170519,-0.6209622621536255,1.180435299873352,-0.6208809614181519,1.196794867515564,2.4825143814086914,0.9977309703826904,,,,,,,
4635868000.0,112.04,-1.7899999618530273,12041169408.0,1709.8511048727942,198.0,-0.0062150717712938786,815104.0,1933.6772153377533,1.2264494975156026e-15,0.0,0.05921035259962082,-0.0005921109695918858,0.036638833582401276,-0.0005921035190112889,-7.450580596923828e-09,0.0,0.01310001965612173,0.2704143226146698,0.9578421153456589,-0.5818122029304504,1.333091378211975,-0.5687121748924255,1.3170136213302612,2.3955302238464355,0.9978933334350586,,,,,,,
4635868000.0,107.43,-1.690000057220459,12041169408.0,1675.463650939164,199.0,-0.014201647602021694,819200.0,1936.121911764145,3.1242369802342296e-15,0.0,0.1736575961112976,-0.001736580627039075,0.04359789937734604,-0.0017365759704262018,-4.6566128730773926e-09,0.0,0.02263415977358818,0.2944565713405609,0.9640680713701669,-0.8050248622894287,1.5596258640289307,-0.7823907136917114,1.553391695022583,2.4446964263916016,0.9977922439575195,,,,,,,
4635868000.0,106.14,-2.299999952316284,12041169408.0,1688.9292288042684,200.0,-0.011532469652593136,823296.0,1938.5471169948578,4.2396641752873165e-15,0.0,0.2845569849014282,-0.002845579059794545,0.07321491837501526,-0.002845569746568799,-9.313225746154785e-09,0.0,0.03253605216741562,0.38132235407829285,0.9225817177944816,-0.9449138641357422,1.380916714668274,-0.9123777151107788,1.370473027229309,2.4252052307128906,0.997772216796875,,,,,,,
4635868000.0,108.72,-2.450000047683716,12041169408.0,1659.1873111187258,201.0,-0.009510100819170475,827392.0,1941.015795469284,6.453171330633722e-15,0.0,0.4876425862312317,-0.004876414779573679,0.09417709708213806,-0.004876425955444574,1.1175870895385742e-08,0.0,-0.0056930892169475555,0.4340135455131531,0.8223979956815664,-0.5961225032806396,1.0497342348098755,-0.6018155813217163,1.0298627614974976,2.4686784744262695,0.9977869987487793,,,,,,,
4635868000.0,108.49,-2.3399999141693115,12041169408.0,1683.6995555410945,202.0,-0.010272401385009289,831488.0,1943.4485335350037,5.821731985378165e-15,0.0,0.5502539277076721,-0.005502539221197367,0.0955633893609047,-0.005502539221197367,0.0,0.0,-0.0004210923798382282,0.43723368644714355,0.7922860057105237,-0.42840319871902466,0.9621266722679138,-0.4288243055343628,0.9593580365180969,2.4327380657196045,0.9979274272918701,,,,,,,
4635868000.0,102.11,-1.9500000476837158,12041169408.0,1646.7817234593415,203.0,-0.00989698339253664,835584.0,1945.935809135437,7.509617927503598e-15,0.0,0.6192753911018372,-0.0061927554197609425,0.11319492757320404,-0.006192753557115793,-1.862645149230957e-09,0.0,-0.007015179842710495,0.47581079602241516,0.8221078384194294,-0.6205320358276367,1.1054021120071411,-0.6275472044944763,1.1281214952468872,2.4872756004333496,0.9976756572723389,,,,,,,
4635868000.0,98.67,-1.8799999952316284,12041169408.0,1662.9880777947487,204.0,-0.010281061753630638,839680.0,1948.3988454341888,9.853229343548264e-15,0.0,0.6473671197891235,-0.006473682355135679,0.11369885504245758,-0.006473671179264784,-1.1175870895385742e-08,0.0,0.014477740041911602,0.47670072317123413,0.7583448689322025,-0.47018468379974365,1.0045368671417236,-0.45570695400238037,0.9697232246398926,2.463036298751831,0.9978630542755127,,,,,,,
4635868000.0,96.75,-2.0999999046325684,12041169408.0,1674.6797013237674,205.0,-0.010920094326138496,843776.0,1950.8446862697601,1.0387524174149121e-14,0.0,0.7018489837646484,-0.007018480449914932,0.09036555141210556,-0.007018489763140678,9.313225746154785e-09,0.0,-0.025515194982290268,0.42441025376319885,0.8098271775305693,-0.36052578687667847,0.9236301183700562,-0.38604098558425903,0.9732213616371155,2.445840835571289,0.998018741607666,,,,,,,
4635868000.0,100.89,-1.7699999809265137,12041169408.0,1733.1820722639525,206.0,-0.008381903171539307,847872.0,1953.2079694271088,1.0805592531859531e-14,0.0,0.8736740350723267,-0.008736732415854931,0.12470069527626038,-0.008736739866435528,7.450580596923828e-09,0.0,-0.010836152359843254,0.4993444085121155,0.6437773097681119,-0.4174031615257263,0.7860916256904602,-0.4282393455505371,0.8366415500640869,2.363283157348633,0.9977240562438965,,,,,,,
4635868000.0,97.34,-1.659999966621399,12041169408.0,1599.6815123455756,207.0,-0.0087637510150671,851968.0,1955.7684791088104,1.4427695149699105e-14,0.0,1.1176421642303467,-0.01117642316967249,0.11214287579059601,-0.01117642130702734,-1.862645149230957e-09,0.0,-0.039229974150657654,0.47201815247535706,0.7541049555880365,-0.41650390625,0.8769571781158447,-0.45573386549949646,0.9518835544586182,2.56050968170166,0.9978759288787842,,,,,,,
4635868000.0,94.88,-1.9199999570846558,12041169408.0,1669.3773217930998,208.0,-0.013325793668627739,856064.0,1958.2220885753632,1.6306400674181987e-14,0.0,1.4194221496582031,-0.014194211922585964,0.14098615944385529,-0.01419422123581171,9.313225746154785e-09,0.0,-0.09405167400836945,0.5226789712905884,0.5679434158144754,-0.3195515275001526,0.6420779824256897,-0.41360318660736084,0.7951786518096924,2.4536094665527344,0.9978466033935547,,,,,,,
4635868000.0,94.51,-2.009999990463257,12041169408.0,1677.5533531939716,209.0,-0.00888066366314888,860160.0,1960.663739681244,1.5090359517522245e-14,0.0,1.6297129392623901,-0.016297122463583946,0.12675434350967407,-0.016297129914164543,7.450580596923828e-09,0.0,-0.03922557085752487,0.5020274519920349,0.5580437598670671,-0.29314035177230835,0.5968776941299438,-0.3323659300804138,0.7551580667495728,2.4416511058807373,0.9979233741760254,,,,,,,
4635868000.0,92.68,-2.009999990463257,12041169408.0,1634.9616060888793,210.0,-0.010655186139047146,864256.0,1963.1689972877502,1.3999218451132833e-14,0.0,1.2456202507019043,-0.012456200085580349,0.14299121499061584,-0.012456201948225498,1.862645149230957e-09,0.0,-0.0467953160405159,0.5327869057655334,0.4728229718908854,-0.33026841282844543,0.5774919390678406,-0.3770637512207031,0.7337960600852966,2.5052576065063477,0.9977669715881348,,,,,,,
4635868000.0,93.84,-1.4800000190734863,12041169408.0,1657.7697581509724,211.0,-0.010402848944067955,868352.0,1965.6397867202759,1.4295856165524867e-14,0.0,1.4518884420394897,-0.014518882147967815,0.11796275526285172,-0.014518884010612965,1.862645149230957e-09,0.0,-0.07293661683797836,0.48027291893959045,0.7009609974093802,-0.2865700423717499,0.58395916223526,-0.35950666666030884,0.8782621622085571,2.4707894325256348,0.9979968070983887,,,,,,,
4635868000.0,87.66,-1.559999942779541,12041169408.0,1663.1720925729796,212.0,-0.009896510280668736,872448.0,1968.1025505065918,1.3874318360862503e-14,0.0,1.360447883605957,-0.013604501262307167,0.11638221889734268,-0.013604478910565376,-2.2351741790771484e-08,0.0,-0.025681421160697937,0.48183149099349976,0.5592095598321847,-0.27925047278404236,0.5233424305915833,-0.3049319386482239,0.725736677646637,2.462763786315918,0.9978010654449463,,,,,,,
4635868000.0,88.01,-2.0199999809265137,12041169408.0,1714.5726898027956,213.0,-0.012817012146115303,876544.0,1970.491483926773,1.676610239531584e-14,0.0,1.55260169506073,-0.015526008792221546,0.12627357244491577,-0.015526016242802143,7.450580596923828e-09,0.0,-0.09074001759290695,0.49434101581573486,0.5673933104000753,-0.3783261775970459,0.5230906009674072,-0.46906620264053345,0.7515883445739746,2.3889334201812744,0.99802565574646,,,,,,,
4635868000.0,95.91,-2.009999990463257,12041169408.0,1644.637563252735,214.0,-0.012171069160103798,880640.0,1972.9820022583008,1.6629059240713673e-14,0.0,1.6473877429962158,-0.016473887488245964,0.1445995569229126,-0.01647387631237507,-1.1175870895385742e-08,0.0,-0.12425760924816132,0.5232838988304138,0.6262805992174234,-0.4249417781829834,0.5734185576438904,-0.5491993427276611,0.8559818267822266,2.49051833152771,0.9983172416687012,,,,,,,
4635868000.0,93.92,-2.3499999046325684,12041169408.0,1691.1876819172662,215.0,-0.01419144868850708,884736.0,1975.4039688110352,2.0278917434168875e-14,0.0,1.9084274768829346,-0.019084284082055092,0.14704415202140808,-0.019084274768829346,-9.313225746154785e-09,0.0,-0.02511427365243435,0.5417833924293518,0.5752525133069696,-0.5733839273452759,0.6066067218780518,-0.5984981656074524,0.8313047289848328,2.421966552734375,0.9978702068328857,,,,,,,
4635868000.0,86.02,-2.5199999809265137,12041169408.0,1666.5707120763757,216.0,-0.015574406832456589,888832.0,1977.8617103099823,1.7093965132275457e-14,0.0,2.456052780151367,-0.02456052415072918,0.21029281616210938,-0.024560527876019478,3.725290298461914e-09,0.0,-0.13316833972930908,0.6347835659980774,0.5639647734220714,-0.4733397662639618,0.622581958770752,-0.6065080761909485,0.9613131880760193,2.4577414989471436,0.9981112480163574,,,,,,,
4635868000.0,86.21,-2.5999999046325684,12041169408.0,1631.4550328919222,217.0,-0.01594211533665657,892928.0,1980.3723526000977,1.5926496232943066e-14,0.0,2.576972723007202,-0.025769704952836037,0.16418278217315674,-0.025769727304577827,2.2351741790771484e-08,0.0,-0.06639375537633896,0.5692420601844788,0.5315721931459136,-0.5643105506896973,0.6376241445541382,-0.6307043433189392,0.8317171931266785,2.5106422901153564,0.9978241920471191,,,,,,,
4635868000.0,87.5,-2.859999895095825,12041169408.0,1648.584479274602,218.0,-0.015665775164961815,897024.0,1982.8569083213806,1.424554918472154e-14,0.0,2.651653289794922,-0.026516534388065338,0.21992528438568115,-0.02651653252542019,-1.3969838619232178e-09,0.0,-0.07384981215000153,0.6591683030128479,0.49055183446506934,-0.6627868413925171,0.6965359449386597,-0.7366365790367126,0.9235199093818665,2.484555721282959,0.9979183673858643,,,,,,,
4635868000.0,85.48,-2.240000009536743,12041169408.0,1651.5901852496493,219.0,-0.01301043201237917,901120.0,1985.336942434311,1.2307863062055446e-14,0.0,2.6714019775390625,-0.026714015752077103,0.1869303584098816,-0.0267140194773674,2.7939677238464355e-09,0.0,0.016337722539901733,0.6112978458404541,0.5633071168410497,-0.8155585527420044,0.7732981443405151,-0.7992209196090698,0.9250491857528687,2.480034112930298,0.9976487159729004,,,,,,,
4635868000.0,87.46,-2.180000066757202,12041169408.0,1688.4999680578192,220.0,-0.01313009299337864,905216.0,1987.7627642154694,1.2472661792273243e-14,0.0,2.6768293380737305,-0.02676829695701599,0.18661761283874512,-0.026768293231725693,-3.725290298461914e-09,0.0,0.04518742486834526,0.6093307733535767,0.5384675666797618,-0.8341877460479736,0.7671424746513367,-0.7890002131462097,0.896916389465332,2.4258217811584473,0.9979307651519775,,,,,,,
4635868000.0,85.09,-2.609999895095825,12041169408.0,1663.5710115411844,221.0,-0.016534481197595596,909312.0,1990.2249374389648,1.3277573485126482e-14,0.0,2.6750075817108154,-0.026750074699521065,0.21807031333446503,-0.026750074699521065,0.0,0.0,0.04444452375173569,0.6589926481246948,0.53452062182716,-0.9733827710151672,0.8186084628105164,-0.9289382696151733,0.9658960103988647,2.4621732234954834,0.9977426528930664,,,,,,,
4635868000.0,83.8,-2.0799999237060547,12041169408.0,1669.3294699430471,222.0,-0.01034575141966343,913408.0,1992.6786172389984,1.3121448372288569e-14,0.0,2.658252239227295,-0.02658250741660595,0.23044240474700928,-0.026582522317767143,1.4901161193847656e-08,0.0,0.0679994747042656,0.6755533218383789,0.5511429271517672,-1.072574257850647,0.8533267974853516,-1.0045747756958008,1.0083366632461548,2.4536798000335693,0.9976329803466797,,,,,,,
4635868000.0,87.18,-2.2799999713897705,12041169408.0,1625.0911811740739,223.0,-0.01713990792632103,917504.0,1995.1990911960602,1.3206449822611432e-14,0.0,2.648599147796631,-0.02648599073290825,0.19610163569450378,-0.02648599073290825,0.0,0.0,0.03218582272529602,0.6255100965499878,0.5510955767671117,-0.9421358704566956,0.7305909991264343,-0.9099501371383667,0.9335924983024597,2.5204739570617676,0.9978699684143066,,,,,,,
,,,,,,,,,,,,,,,,,,,,,,,,,,0.01395887229591608,0.28401049971580505,0.1839703470468521,0.01395887229591608,0.28401049971580505,0.1839703470468521,
,,,,,,,,,,,,,,,,,,,,,,,,,,0.0065657044760882854,0.18453237414360046,0.15377292037010193,0.0065657044760882854,0.18453237414360046,0.15377292037010193,
,,,,,,,,,,,,,,,,,,,,,,,,,,0.00489228218793869,0.16096419095993042,0.13771678507328033,0.00489228218793869,0.16096419095993042,0.13771678507328033,
,,,,,,,,,,,,,,,,,,,,,,,,,,0.004484443925321102,0.14800305664539337,0.12576204538345337,0.004484443925321102,0.14800305664539337,0.12576204538345337,
,,,,,,,,,,,,,,,,,,,,,,,,,,0.004179148003458977,0.13865461945533752,0.117519810795784,0.004179148003458977,0.13865461945533752,0.117519810795784,
,,,,,,,,,,,,,,,,,,,,,,,,,,0.003946132026612759,0.13297037780284882,0.11400904506444931,0.003946132026612759,0.13297037780284882,0.11400904506444931,
,,,,,,,,,,,,,,,,,,,,,,,,,,,,,,,,-1.98
4635868000.0,86.78,-2.549999952316284,11990521856.0,16.78754217457479,224.0,-0.015483947470784187,921600.0,2239.1895430088043,8.219119829178112e-15,0.0,2.629192352294922,-0.026291916146874428,0.20187422633171082,-0.026291923597455025,6.984919309616089e-09,0.0,-0.08545053005218506,0.6297169327735901,0.5206714562620456,-0.48455142974853516,0.7257912755012512,-0.5700019598007202,0.9095546007156372,243.99045181274414,0.9980618953704834,,,,,,,
4635868000.0,93.42,-2.549999952316284,12041169408.0,1724.465216880254,225.0,-0.016737649217247963,925696.0,2241.564772129059,9.060460715026863e-15,0.0,2.6224613189697266,-0.026224609464406967,0.21185451745986938,-0.026224613189697266,3.725290298461914e-09,0.0,-0.09006597101688385,0.6447469592094421,0.5320461857115584,-0.5773942470550537,0.8556162118911743,-0.6674602031707764,0.9425140023231506,2.3752291202545166,0.9977805614471436,,,,,,,
4635868000.0,89.67,-2.380000114440918,12041169408.0,1613.9324942699322,226.0,-0.007804944645613432,929792.0,2244.1026725769043,8.630249292984615e-15,0.0,2.6197469234466553,-0.02619747631251812,0.1213831901550293,-0.026197468861937523,-7.450580596923828e-09,0.0,0.039106905460357666,0.49121883511543274,0.5457541358074318,-0.40337321162223816,0.6672328114509583,-0.3642663061618805,0.7288354635238647,2.537900447845459,0.9978280067443848,,,,,,,
4635868000.0,74.97,-1.4600000381469727,12041169408.0,1643.7662688173443,227.0,-0.011708070524036884,933888.0,2246.5945110321045,8.815864704914134e-15,0.0,2.6031556129455566,-0.026031561195850372,0.15352539718151093,-0.026031555607914925,-5.587935447692871e-09,0.0,0.02224975824356079,0.5537424087524414,0.6266772619211793,-0.5998235940933228,0.7868573069572449,-0.577573835849762,0.9062865376472473,2.4918384552001953,0.9979374408721924,,,,,,,
4635868000.0,73.88,-1.9500000476837158,12041169408.0,1737.0394620353889,228.0,-0.015354864299297333,937984.0,2248.95254611969,7.903400156550333e-15,0.0,2.567288875579834,-0.02567288465797901,0.17377281188964844,-0.02567288838326931,3.725290298461914e-09,0.0,-0.08796995878219604,0.5830007791519165,0.5521566022807491,-0.4367261230945587,0.6691214442253113,-0.5246961116790771,0.8711763620376587,2.358035087585449,0.9977469444274902,,,,,,,
4635868000.0,81.81,-2.059999942779541,12041169408.0,1740.8378523855538,229.0,-0.010448237881064415,942080.0,2251.3054361343384,9.414344304126132e-15,0.0,2.5323309898376465,-0.025323307141661644,0.15927323698997498,-0.025323309004306793,1.862645149230957e-09,0.0,0.01417231559753418,0.5642901659011841,0.5143334936777648,-0.5024865865707397,0.7215288877487183,-0.4883142113685608,0.8097172379493713,2.3528900146484375,0.9976816177368164,,,,,,,
4635868000.0,83.94,-1.7999999523162842,12041169408.0,1709.6819672757613,230.0,-0.008939690887928009,946176.0,2253.7012033462524,8.559125630469566e-15,0.0,2.5079684257507324,-0.025079676881432533,0.10711130499839783,-0.02507968433201313,7.450580596923828e-09,0.0,0.06823277473449707,0.4578406512737274,0.6151620454359084,-0.44416964054107666,0.6257921457290649,-0.3759368658065796,0.738032341003418,2.3957672119140625,0.9980244636535645,,,,,,,
4635868000.0,83.59,-1.8200000524520874,12041169408.0,1701.3578468053247,231.0,-0.015357624739408493,950272.0,2256.1086921691895,8.795048023202412e-15,0.0,2.5184037685394287,-0.025184033438563347,0.14713303744792938,-0.025184037163853645,3.725290298461914e-09,0.0,-0.08986719697713852,0.5350325703620911,0.5628420538844368,-0.3355078101158142,0.5874859690666199,-0.4253750443458557,0.8092095851898193,2.4074888229370117,0.9977970123291016,,,,,,,
4635868000.0,83.96,-1.899999976158142,12041169408.0,1732.5262789328042,232.0,-0.009569013491272926,954368.0,2258.472869873047,9.221789998292707e-15,0.0,2.5256853103637695,-0.02525685355067253,0.11323362588882446,-0.025256851688027382,-1.862645149230957e-09,0.0,-0.008601948618888855,0.4758661091327667,0.543232133786792,-0.36401766538619995,0.5888376832008362,-0.37261962890625,0.7041042447090149,2.364177703857422,0.9978978633880615,,,,,,,
4635868000.0,85.87,-1.559999942779541,12041169408.0,1700.846131258404,233.0,-0.006173409521579742,958464.0,2260.881083011627,8.06819888676813e-15,0.0,2.5177016258239746,-0.025177018716931343,0.10193686187267303,-0.025177014991641045,-3.725290298461914e-09,0.0,0.008375432342290878,0.4515012204647064,0.39631882890190917,-0.24963553249835968,0.4435303509235382,-0.2412600815296173,0.581105649471283,2.4082131385803223,0.9976325035095215,,,,,,,
4635868000.0,86.66,-1.399999976158142,12041169408.0,1665.283687210427,234.0,-0.009195609018206596,962560.0,2263.340723991394,8.743006318923108e-15,0.0,2.514126777648926,-0.025141263380646706,0.14029237627983093,-0.025141267105937004,3.725290298461914e-09,0.0,-0.04215838760137558,0.5280866622924805,0.506060662402432,-0.2765211760997772,0.4618191421031952,-0.3186795711517334,0.7513951659202576,2.4596409797668457,0.997758150100708,,,,,,,
4635868000.0,82.05,-1.350000023841858,12041169408.0,1676.6671335605342,235.0,-0.007054530084133148,966656.0,2265.7836656570435,8.614636781700824e-15,0.0,2.4743247032165527,-0.024743245914578438,0.11900154501199722,-0.024743245914578438,0.0,0.0,0.02418498322367668,0.48731529712677,0.4661438503624533,-0.3220810890197754,0.4657634496688843,-0.2978960871696472,0.6669570803642273,2.442941665649414,0.9977278709411621,,,,,,,
4635868000.0,78.17,-0.8100000023841858,12041169408.0,1588.9551776193496,236.0,-0.005672077182680368,970752.0,2268.361460208893,9.370976217226712e-15,0.0,2.4414987564086914,-0.02441498637199402,0.09527218341827393,-0.02441498637199402,0.0,0.0,0.010948233306407928,0.43642985820770264,0.4355736358443376,-0.31583449244499207,0.4255460500717163,-0.30488622188568115,0.5809125304222107,2.5777945518493652,0.9979376792907715,,,,,,,
4635868000.0,76.77,-1.090000033378601,12041169408.0,1678.4947894454897,237.0,-0.009078722447156906,974848.0,2270.801741838455,9.363169961584816e-15,0.0,2.3971962928771973,-0.02397196926176548,0.11858657747507095,-0.023971961811184883,-7.450580596923828e-09,0.0,-0.0005568154156208038,0.48706337809562683,0.5593715940145841,-0.283771812915802,0.48779812455177307,-0.2843286395072937,0.7337518930435181,2.440281629562378,0.9975728988647461,,,,,,,
4635868000.0,74.52,-1.0099999904632568,12041169408.0,1664.1648322290157,238.0,-0.005550442263484001,978944.0,2273.2630364894867,9.79598346884103e-15,0.0,2.313255786895752,-0.023132553324103355,0.10786409676074982,-0.023132557049393654,3.725290298461914e-09,0.0,0.02172420360147953,0.46401381492614746,0.6155537618171932,-0.3724268078804016,0.5542917847633362,-0.3507026433944702,0.7483643293380737,2.461294651031494,0.9977853298187256,,,,,,,
4635868000.0,74.15,-0.9700000286102295,12041169408.0,1713.1197738106266,239.0,-0.009718981571495533,983040.0,2275.653995990753,1.093439574995081e-14,0.0,2.242283821105957,-0.02242283523082733,0.09446921944618225,-0.02242283709347248,1.862645149230957e-09,0.0,-0.03782231733202934,0.4330747127532959,0.598347032165307,-0.37432557344436646,0.5374512672424316,-0.4121478796005249,0.6833407282829285,2.3909595012664795,0.9977848529815674,,,,,,,
4635868000.0,78.22,-1.4800000190734863,12041169408.0,1683.257775647072,240.0,-0.010606123134493828,987136.0,2278.0873725414276,1.1405806854547507e-14,0.0,2.242842197418213,-0.022428417578339577,0.1300254464149475,-0.022428421303629875,3.725290298461914e-09,0.0,-0.026951482519507408,0.5093013644218445,0.6068141187843004,-0.4389582872390747,0.6238255500793457,-0.46590980887413025,0.8122240304946899,2.4333765506744385,0.9979534149169922,,,,,,,
4635868000.0,79.5,-1.4700000286102295,12041169408.0,1618.2863972384553,241.0,-0.007958287373185158,991232.0,2280.618444919586,1.0625614971226938e-14,0.0,2.2475149631500244,-0.022475145757198334,0.08463773131370544,-0.022475149482488632,3.725290298461914e-09,0.0,0.02973085269331932,0.4104054868221283,0.6939566484398294,-0.4749850034713745,0.633395791053772,-0.4452541470527649,0.741859495639801,2.5310723781585693,0.9994947910308838,,,,,,,
4635868000.0,76.02,-1.3700000047683716,12041169408.0,1706.824796279769,242.0,-0.00922267697751522,995328.0,2283.0182225704193,1.0840720682248062e-14,0.0,2.244704246520996,-0.022447045892477036,0.11061769723892212,-0.022447042167186737,-3.725290298461914e-09,0.0,0.021486766636371613,0.4699229896068573,0.6380457137770327,-0.4592777490615845,0.5946839451789856,-0.43779098987579346,0.7810877561569214,2.39977765083313,0.9978780746459961,,,,,,,
4635868000.0,77.56,-1.159999966621399,12041169408.0,1658.4838353551288,243.0,-0.005942256189882755,999424.0,2285.487948179245,1.1237538677377756e-14,0.0,2.1906538009643555,-0.021906545385718346,0.07712702453136444,-0.02190653793513775,-7.450580596923828e-09,0.0,0.055335357785224915,0.388881653547287,0.6924987408422778,-0.4788084030151367,0.6435765027999878,-0.423473060131073,0.7012841105461121,2.4697256088256836,0.997797966003418,,,,,,,
4635868000.0,77.1,-0.9100000262260437,12041169408.0,1643.339063126988,244.0,-0.005819241050630808,1003520.0,2287.9804344177246,1.073013206065454e-14,0.0,2.2240419387817383,-0.02224041149020195,0.09495867043733597,-0.022240418940782547,7.450580596923828e-09,0.0,0.06643218547105789,0.4307544529438019,0.6467641410494678,-0.42331352829933167,0.6195111870765686,-0.35688135027885437,0.7247653603553772,2.4924862384796143,0.9978671073913574,,,,,,,
4635868000.0,75.71,-0.699999988079071,12041169408.0,1614.7307029752626,245.0,-0.006582288071513176,1007616.0,2290.517080307007,1.0672018824209317e-14,0.0,2.218703269958496,-0.02218703366816044,0.0847044438123703,-0.02218703180551529,-1.862645149230957e-09,0.0,0.044012054800987244,0.40928322076797485,0.6610427844751352,-0.3970056176185608,0.6102741956710815,-0.35299357771873474,0.7029937505722046,2.5366458892822266,0.9979074001312256,,,,,,,
4635868000.0,75.09,-1.149999976158142,12041169408.0,1666.7750871692172,246.0,-0.007977535016834736,1011712.0,2292.97452044487,1.0907941216942163e-14,0.0,2.294867992401123,-0.02294866368174553,0.0928008109331131,-0.022948678582906723,1.4901161193847656e-08,0.0,0.031685203313827515,0.4297007620334625,0.5597206812690818,-0.33836913108825684,0.5275207161903381,-0.3066839277744293,0.6475927829742432,2.457440137863159,0.9979310035705566,,,,,,,
4635868000.0,77.83,-1.2899999618530273,12041169408.0,1657.6256410201981,247.0,-0.008488701656460762,1015808.0,2295.4455246925354,1.1107434416679496e-14,0.0,2.3149664402008057,-0.023149659857153893,0.09004992991685867,-0.02314966358244419,3.725290298461914e-09,0.0,0.004384859465062618,0.4244109094142914,0.7534185977107928,-0.39711591601371765,0.726294994354248,-0.39273107051849365,0.8546855449676514,2.4710042476654053,0.9979596138000488,,,,,,,
4635868000.0,78.28,-1.309999942779541,12041169408.0,1665.439148917277,248.0,-0.007986662909388542,1019904.0,2297.9049360752106,1.147736419793155e-14,0.0,2.3462469577789307,-0.023462466895580292,0.09564471244812012,-0.02346246875822544,1.862645149230957e-09,0.0,-0.026520512998104095,0.4366149604320526,0.6719453358543425,-0.37853679060935974,0.6271414756774902,-0.40505731105804443,0.7622992396354675,2.459411382675171,0.9979648590087891,,,,,,,
4635868000.0,75.67,-0.9900000095367432,12041169408.0,1662.0924126548307,249.0,-0.005453656427562237,1024000.0,2300.3692996501923,1.1405806854547507e-14,0.0,2.3589024543762207,-0.02358904480934143,0.08776351064443588,-0.02358902432024479,-2.0489096641540527e-08,0.0,0.05507982522249222,0.4153737723827362,0.7375203619598381,-0.3842390775680542,0.7131438851356506,-0.3291592001914978,0.8107579350471497,2.4643635749816895,0.997960090637207,,,,,,,
4635868000.0,78.55,-0.8799999952316284,12041169408.0,1660.8604602668013,250.0,-0.006725842133164406,1028096.0,2302.83549118042,1.1502951369202208e-14,0.0,2.4635064601898193,-0.024635061621665955,0.09526266157627106,-0.024635063484311104,1.862645149230957e-09,0.0,-0.012556647881865501,0.43636468052864075,0.6361519461370186,-0.2939549684524536,0.5838738679885864,-0.30651164054870605,0.7234184741973877,2.466191530227661,0.9977502822875977,,,,,,,
4635868000.0,78.93,-0.9399999976158142,12041169408.0,1611.856182303636,251.0,-0.0035558100789785385,1032192.0,2305.376660823822,1.1077076755849902e-14,0.0,2.474567413330078,-0.02474566549062729,0.0702354833483696,-0.024745672941207886,7.450580596923828e-09,0.0,0.057154178619384766,0.3704563081264496,0.6907067010891232,-0.2521718442440033,0.5961846113204956,-0.19501765072345734,0.666118860244751,2.5411696434020996,0.9980635643005371,,,,,,,
4635868000.0,80.28,-0.4099999964237213,12041169408.0,1601.7037095945486,252.0,-0.001524896826595068,1036288.0,2307.9339377880096,1.1241441805198704e-14,0.0,2.4751803874969482,-0.024751774966716766,0.08979429304599762,-0.024751802906394005,2.7939677238464355e-08,0.0,0.10843084752559662,0.409722238779068,0.48699049790277227,-0.18292278051376343,0.593559980392456,-0.074491947889328,0.5720406174659729,2.557276964187622,0.9979169368743896,,,,,,,
4635868000.0,79.95,-0.5099999904632568,12041169408.0,1686.1968800016411,253.0,-0.006482978351414204,1040384.0,2310.363072872162,1.0554057627842894e-14,0.0,2.536576747894287,-0.02536577731370926,0.09517863392829895,-0.025365766137838364,-1.1175870895385742e-08,0.0,-0.0540735088288784,0.43298858404159546,0.5717493196615375,-0.1130092665553093,0.49477624893188477,-0.1670827567577362,0.6616485714912415,2.4291350841522217,0.9980578422546387,,,,,,,
4635868000.0,77.63,-0.7200000286102295,12041169408.0,1716.4448643338824,254.0,-0.0030533717945218086,1044480.0,2312.749400615692,1.123580395390178e-14,0.0,2.519394874572754,-0.025193948298692703,0.07995034754276276,-0.025193948298692703,0.0,0.0,-0.015427634119987488,0.3996269106864929,0.5052709248471421,-0.08382861316204071,0.4751158654689789,-0.0992562547326088,0.5681604146957397,2.3863277435302734,0.9977350234985352,,,,,,,
4635868000.0,78.11,-0.38999998569488525,12041169408.0,1729.3452580549047,255.0,-0.002036732155829668,1048576.0,2315.1179270744324,9.893127983495731e-15,0.0,2.546088218688965,-0.025460897013545036,0.05618058145046234,-0.025460882112383842,-1.4901161193847656e-08,0.0,0.02353394776582718,0.33441683650016785,0.7387059939870267,-0.03986901417374611,0.5690866112709045,-0.01633506640791893,0.6542193293571472,2.3685264587402344,0.997861385345459,,,,,,,
,,,,,,,,,,,,,,,,,,,,,,,,,,0.01139482855796814,0.1394006460905075,0.10130362212657928,0.01139482855796814,0.1394006460905075,0.10130362212657928,
,,,,,,,,,,,,,,,,,,,,,,,,,,0.007191784679889679,0.098213329911232,0.08580563217401505,0.007191784679889679,0.098213329911232,0.08580563217401505,
,,,,,,,,,,,,,,,,,,,,,,,,,,0.006105640437453985,0.08663122355937958,0.077491894364357,0.006105640437453985,0.08663122355937958,0.077491894364357,
,,,,,,,,,,,,,,,,,,,,,,,,,,0.00544931273907423,0.08007649332284927,0.07185358554124832,0.00544931273907423,0.08007649332284927,0.07185358554124832,
,,,,,,,,,,,,,,,,,,,,,,,,,,0.005536509677767754,0.0754503384232521,0.06769733875989914,0.005536509677767754,0.0754503384232521,0.06769733875989914,
,,,,,,,,,,,,,,,,,,,,,,,,,,0.0046198200434446335,0.07067199051380157,0.06309157609939575,0.0046198200434446335,0.07067199051380157,0.06309157609939575,
,,,,,,,,,,,,,,,,,,,,,,,,,,,,,,,,-0.41
