CpuMaxMemory,EpLenMean,EpRewMean,GpuMaxMemory,IPS_total,Iter,Misc/FrameRewMean,Misc/InteractCount,Misc/TimeElapsed,Opt/approxkl,Opt/clipfrac,Opt/entropy,Opt/loss_pi,Opt/loss_vf,Opt/negent,Opt/pg,Opt/pi_kl,VFStats/AdvMean,VFStats/AdvStd,VFStats/EV,VFStats/VpredMean,VFStats/VpredStd,VFStats/VtargMean,VFStats/VtargStd,del_time,wait_optimization,scaled/pol_distance,scaled/vf_aux,scaled/vf_true,unscaled/pol_distance,unscaled/vf_aux,unscaled/vf_true,EvalEpMean
3030456000.0,80.125,-1.875,11965495808.0,1683.7574759205165,0.0,-0.011102819815278053,4096.0,2.43265438079834,3.2127078775090467e-15,0.0,2.7072293758392334,-0.027072297409176826,0.15996615588665009,-0.027072293683886528,-3.725290298461914e-09,0.0,-0.16311006247997284,0.5416632294654846,0.006313128837546866,-0.07346861064434052,0.015597067773342133,-0.23657867312431335,0.5433811545372009,2.43265438079834,1.0234618186950684,,,,,,,
3080712000.0,84.94318181818181,-2.704545497894287,12031147008.0,1719.6532624112765,1.0,-0.01651148498058319,8192.0,4.814529895782471,3.1433189384699745e-15,0.0,2.7053771018981934,-0.027053775265812874,0.18133282661437988,-0.027053769677877426,-5.587935447692871e-09,0.0,-0.10405046492815018,0.5932327508926392,-0.007422996594249165,-0.48800957202911377,0.0765179842710495,-0.5920600295066833,0.5910431146621704,2.381875514984131,0.9965336322784424,,,,,,,
3130228000.0,85.71,-2.890000104904175,12031147008.0,1785.8233840488167,2.0,-0.010951380245387554,12288.0,7.108149766921997,3.157196726277789e-15,0.0,2.7024343013763428,-0.027024343609809875,0.18913686275482178,-0.027024341747164726,-1.862645149230957e-09,0.0,0.1406373232603073,0.5988175272941589,0.016757203427215095,-1.1386539936065674,0.19116145372390747,-0.9980165958404541,0.6038987040519714,2.2936198711395264,0.9969441890716553,,,,,,,
3180112000.0,78.84,-2.119999885559082,12031147008.0,1784.6572516796214,3.0,-0.010159681551158428,16384.0,9.403268337249756,3.400058012914542e-15,0.0,2.6997716426849365,-0.026997709646821022,0.1725987195968628,-0.02699771523475647,5.587935447692871e-09,0.0,0.07277624309062958,0.5830814838409424,0.053828486929677566,-0.9169301986694336,0.1547602117061615,-0.844153881072998,0.5994380116462708,2.295118570327759,0.9966027736663818,,,,,,,
3229480000.0,77.54,-1.840000033378601,12031147008.0,1777.7826374092606,4.0,-0.013545658439397812,20480.0,11.70726203918457,4.045375145977914e-15,0.0,2.6940014362335205,-0.026940014213323593,0.1759568452835083,-0.026940014213323593,0.0,0.0,-0.0371682345867157,0.5921298861503601,0.03133289750576296,-0.6812657117843628,0.10904952138662338,-0.7184339165687561,0.6016302704811096,2.3039937019348145,0.9971835613250732,,,,,,,
3278584000.0,79.53,-2.299999952316284,12031147008.0,1725.399406791517,5.0,-0.010496233589947224,24576.0,14.081205129623413,4.649058915617843e-15,0.0,2.6856260299682617,-0.02685626596212387,0.1831207424402237,-0.026856260374188423,-4.6566128730773926e-09,0.0,-0.03539418429136276,0.6042167544364929,0.031042280705033676,-0.5513936877250671,0.10488267987966537,-0.5867878198623657,0.6138190031051636,2.3739430904388428,0.9965827465057373,,,,,,,
3327952000.0,83.8,-2.4600000381469727,12031147008.0,1743.4800841910414,6.0,-0.014579849317669868,28672.0,16.430529356002808,4.260480856999038e-15,0.0,2.6863272190093994,-0.026863273233175278,0.17866018414497375,-0.02686327137053013,-9.313225746154785e-10,0.0,-0.12151707708835602,0.5853525400161743,0.04800703591285982,-0.4891146421432495,0.09257583320140839,-0.6106317043304443,0.5999300479888916,2.3493242263793945,0.9966344833374023,,,,,,,
3377056000.0,81.91,-2.0199999809265137,12031147008.0,1789.1211218187273,7.0,-0.008941018022596836,32768.0,18.719921588897705,3.9065972678997696e-15,0.0,2.6884119510650635,-0.02688412182033062,0.15445630252361298,-0.02688411809504032,-3.725290298461914e-09,0.0,0.03116326592862606,0.5549924373626709,0.014657772172851802,-0.5438050627708435,0.1111852154135704,-0.5126417875289917,0.5591052174568176,2.2893922328948975,0.9965081214904785,,,,,,,
3426160000.0,78.68,-1.5299999713897705,12031147008.0,1784.4924538661562,8.0,-0.011801796033978462,36864.0,21.015252113342285,4.461708780212348e-15,0.0,2.685666561126709,-0.026856649667024612,0.1641421914100647,-0.026856664568185806,1.4901161193847656e-08,0.0,-0.048191554844379425,0.5710005164146423,0.07312090961091033,-0.5354831218719482,0.12344937026500702,-0.5836746692657471,0.5930958986282349,2.29533052444458,0.9966905117034912,,,,,,,
3475792000.0,81.43,-1.7200000286102295,12031147008.0,1784.4055255503786,9.0,-0.00503569608554244,40960.0,23.310694456100464,3.837208328860697e-15,0.0,2.685652256011963,-0.026856517419219017,0.13389691710472107,-0.026856521144509315,3.725290298461914e-09,0.0,0.04296307638287544,0.5157644152641296,0.038126948642176695,-0.5708553194999695,0.12864696979522705,-0.5278922319412231,0.525887131690979,2.2954423427581787,0.9969277381896973,,,,,,,
3525160000.0,82.58,-1.2699999809265137,12031147008.0,1768.9522002411477,10.0,-0.007250896655023098,45056.0,25.626189470291138,4.1772141301521515e-15,0.0,2.684016227722168,-0.026840154081583023,0.13089540600776672,-0.02684016153216362,7.450580596923828e-09,0.0,0.05739247053861618,0.5084879994392395,0.07919413654950969,-0.5638369917869568,0.14848241209983826,-0.5064445734024048,0.5299032926559448,2.315495014190674,0.9968984127044678,,,,,,,
3574792000.0,81.86,-1.6200000047683716,12031147008.0,1753.9962867677125,11.0,-0.01284717209637165,49152.0,27.96142816543579,4.586608870482678e-15,0.0,2.6763858795166016,-0.02676386572420597,0.18697834014892578,-0.026763858273625374,-7.450580596923828e-09,0.0,-0.056370846927165985,0.6089905500411987,0.07886344404750212,-0.5901995897293091,0.13174845278263092,-0.6465704441070557,0.6345248222351074,2.3352386951446533,0.9967358112335205,,,,,,,
3624160000.0,85.75,-2.309999942779541,12031147008.0,1793.3138096548867,12.0,-0.014720289036631584,53248.0,30.24546790122986,4.57446580615084e-15,0.0,2.674346446990967,-0.026743454858660698,0.197426438331604,-0.026743464171886444,9.313225746154785e-09,0.0,-0.0679815262556076,0.6247613430023193,0.06954062938504635,-0.5990039110183716,0.1374056488275528,-0.6669855117797852,0.6476873755455017,2.2840397357940674,0.9967050552368164,,,,,,,
3673788000.0,84.11,-2.559999942779541,12031147008.0,1783.7139225019198,13.0,-0.014845685102045536,57344.0,32.54180026054382,4.709774237277031e-15,0.0,2.667079448699951,-0.02667078748345375,0.17755304276943207,-0.0266707930713892,6.51925802230835e-09,0.0,-0.04567278176546097,0.5942274928092957,0.03618437747246761,-0.6634476780891418,0.1742168366909027,-0.7091204524040222,0.6052791476249695,2.296332359313965,0.9965009689331055,,,,,,,
3723420000.0,82.06,-2.3499999046325684,12031147008.0,1742.5295762162173,14.0,-0.01024132501333952,61440.0,34.89240598678589,4.9855952699573436e-15,0.0,2.655062675476074,-0.02655063383281231,0.15337544679641724,-0.026550626382231712,-7.450580596923828e-09,0.0,0.018845725804567337,0.5535978078842163,0.11886927050326657,-0.7091567516326904,0.2077585607767105,-0.6903110146522522,0.589758574962616,2.3506057262420654,0.9965860843658447,,,,,,,
3772788000.0,81.35,-2.140000104904175,12031147008.0,1696.941282915158,15.0,-0.015209510922431946,65536.0,37.30616068840027,5.042841144664578e-15,0.0,2.613467216491699,-0.026134656742215157,0.25279727578163147,-0.02613467164337635,1.4901161193847656e-08,0.0,-0.045029085129499435,0.7097111940383911,0.01689689878036682,-0.8093708753585815,0.21158237755298615,-0.8543999195098877,0.7157841324806213,2.41375470161438,0.9966204166412354,,,,,,,
3822420000.0,84.78,-2.5899999141693115,12031147008.0,1783.9093252129883,16.0,-0.0120250154286623,69632.0,39.60224151611328,4.687222832089333e-15,0.0,2.562246322631836,-0.02562246471643448,0.17992565035820007,-0.02562246285378933,-1.862645149230957e-09,0.0,0.0024591851979494095,0.5999442934989929,0.1009326164336033,-0.8520337343215942,0.28572672605514526,-0.8495745062828064,0.6327247023582458,2.2960808277130127,0.9966423511505127,,,,,,,
3871788000.0,86.28,-2.4700000286102295,12031147008.0,1753.1010056121088,17.0,-0.010212231427431107,73728.0,41.9386727809906,5.403663627667754e-15,0.0,2.4682180881500244,-0.024682166054844856,0.18044781684875488,-0.02468218095600605,1.4901161193847656e-08,0.0,0.08063076436519623,0.5953829288482666,0.08179598999606608,-0.9038244485855103,0.23637010157108307,-0.8231936693191528,0.6213363409042358,2.3364312648773193,0.9968113899230957,,,,,,,
3921420000.0,79.64,-2.069999933242798,12031147008.0,1754.6872551538968,18.0,-0.011438102461397648,77824.0,44.27299189567566,5.863365348801608e-15,0.0,2.4197452068328857,-0.02419746294617653,0.16549448668956757,-0.024197451770305634,-1.1175870895385742e-08,0.0,0.06054212898015976,0.5721918344497681,0.051378806646673714,-0.8308614492416382,0.2070540338754654,-0.7703192830085754,0.5874829292297363,2.3343191146850586,0.996553897857666,,,,,,,
3970788000.0,80.2,-1.7000000476837158,12031147008.0,1760.4547196941253,19.0,-0.007030312903225422,81920.0,46.599663496017456,5.1486592766991635e-15,0.0,2.4298255443573,-0.024298256263136864,0.14118969440460205,-0.024298254400491714,-1.862645149230957e-09,0.0,0.06840677559375763,0.527036726474762,-0.035568064028093316,-0.6785355806350708,0.19707044959068298,-0.6101287603378296,0.5179067254066467,2.326671600341797,0.9965851306915283,,,,,,,
4020420000.0,80.04,-1.3200000524520874,12031147008.0,1792.2171474341421,20.0,-0.009802869521081448,86016.0,48.88510084152222,5.771425004574837e-15,0.0,2.4170541763305664,-0.024170538410544395,0.16761615872383118,-0.024170542135834694,3.725290298461914e-09,0.0,-0.0350092351436615,0.5780036449432373,0.10271649665130644,-0.5869016647338867,0.149434894323349,-0.6219108700752258,0.6101909875869751,2.2854373455047607,0.9966030120849609,,,,,,,
4070052000.0,81.91,-1.4800000190734863,12031147008.0,1784.0910603687842,21.0,-0.010194920003414154,90112.0,51.18094778060913,6.324801793411439e-15,0.0,2.400606870651245,-0.02400606870651245,0.1514216959476471,-0.02400606870651245,0.0,0.0,-0.025690898299217224,0.5497792363166809,0.04792807508874741,-0.48658841848373413,0.13639181852340698,-0.5122793316841125,0.5634474754333496,2.295846939086914,0.996652364730835,,,,,,,
4119420000.0,83.15,-2.2300000190734863,12031147008.0,1787.8479718229685,22.0,-0.015265129506587982,94208.0,53.471970319747925,6.255412854372366e-15,0.0,2.415346384048462,-0.024153459817171097,0.17856153845787048,-0.024153463542461395,3.725290298461914e-09,0.0,-0.10781963169574738,0.5878625512123108,0.07417761415955715,-0.44352322816848755,0.1108199954032898,-0.5513428449630737,0.6109587550163269,2.291022539138794,0.9967396259307861,,,,,,,
4169052000.0,79.96,-2.809999942779541,12031147008.0,1759.660969131952,23.0,-0.016486257314682007,98304.0,55.79969143867493,6.4167421376382094e-15,0.0,2.3719353675842285,-0.023719346150755882,0.1876850724220276,-0.02371935360133648,7.450580596923828e-09,0.0,-0.12948256731033325,0.5989089608192444,0.03117294231099399,-0.41490671038627625,0.10332249850034714,-0.5443892478942871,0.6084679365158081,2.327721118927002,0.9968869686126709,,,,,,,
4218420000.0,74.17,-2.319999933242798,12031147008.0,1789.9761804243046,24.0,-0.009483757428824902,102400.0,58.087990045547485,6.897260540483785e-15,0.0,2.3150899410247803,-0.023150887340307236,0.13115668296813965,-0.02315089851617813,1.1175870895385742e-08,0.0,0.0052735693752765656,0.5122007727622986,0.050366440164283044,-0.45626264810562134,0.10156245529651642,-0.4509890675544739,0.525608241558075,2.2882986068725586,0.996737003326416,,,,,,,
4268428000.0,76.9,-2.140000104904175,12031147008.0,1718.5536974094057,25.0,-0.016479894518852234,106496.0,60.47138953208923,6.718584022458174e-15,0.0,2.2947254180908203,-0.022947242483496666,0.19445328414440155,-0.02294725365936756,1.1175870895385742e-08,0.0,-0.1065131276845932,0.614535391330719,0.038961750764509806,-0.4925243854522705,0.10893871635198593,-0.5990375280380249,0.6268686056137085,2.383399486541748,0.9968111515045166,,,,,,,
4317796000.0,80.62,-2.069999933242798,12031147008.0,1751.3710275151861,26.0,-0.008066873997449875,110592.0,62.810128688812256,6.635317295611287e-15,0.0,2.2350473403930664,-0.022350477054715157,0.11979709565639496,-0.022350473329424858,-3.725290298461914e-09,0.0,0.025003287941217422,0.48890426754951477,0.07376581009093908,-0.5433028936386108,0.11417348682880402,-0.5182996392250061,0.50799959897995,2.3387391567230225,0.996647834777832,,,,,,,
4367428000.0,81.24,-1.4600000381469727,12031147008.0,1740.9253508224365,27.0,-0.006897411309182644,114688.0,65.16290044784546,7.86176679312689e-15,0.0,2.1382699012756348,-0.021382691338658333,0.09741359949111938,-0.02138269878923893,7.450580596923828e-09,0.0,0.05547797679901123,0.4379454553127289,0.0808982903816684,-0.5824292302131653,0.10536698251962662,-0.526951253414154,0.4568127691745758,2.352771759033203,0.9966344833374023,,,,,,,
4417060000.0,82.22,-1.3799999952316284,12031147008.0,1788.3856463366546,28.0,-0.005717542953789234,118784.0,67.45323419570923,8.512288096618192e-15,0.0,2.1069164276123047,-0.021069150418043137,0.09462815523147583,-0.02106916345655918,1.30385160446167e-08,0.0,0.07641157507896423,0.4283250570297241,0.07272831610735897,-0.6056503653526306,0.12313397973775864,-0.5292388200759888,0.444805383682251,2.2903337478637695,0.9966738224029541,,,,,,,
4466428000.0,77.28,-1.149999976158142,12031147008.0,1799.610785009191,29.0,-0.007348331622779369,122880.0,69.72928190231323,1.050722009399152e-14,0.0,2.0399317741394043,-0.020399319007992744,0.10999917984008789,-0.020399317145347595,-1.862645149230957e-09,0.0,0.04733258858323097,0.4667024612426758,0.1230518749802183,-0.5966291427612305,0.12715855240821838,-0.5492965579032898,0.4983713924884796,2.276047706604004,0.9970204830169678,,,,,,,
4516060000.0,75.09,-1.2200000286102295,12031147008.0,1711.4815769261038,30.0,-0.00990514550358057,126976.0,72.12252998352051,1.3001752452446169e-14,0.0,1.9524760246276855,-0.019524764269590378,0.10950562357902527,-0.01952476054430008,-3.725290298461914e-09,0.0,0.01494864746928215,0.4678047001361847,0.0937408284953305,-0.606175422668457,0.127142533659935,-0.5912267565727234,0.491403728723526,2.3932480812072754,0.9965920448303223,,,,,,,
4565428000.0,79.8,-1.6699999570846558,12031147008.0,1805.5937872807247,31.0,-0.010399146936833858,131072.0,74.39103579521179,1.2281842209915794e-14,0.0,1.9851577281951904,-0.019851580262184143,0.15207749605178833,-0.019851576536893845,-3.725290298461914e-09,0.0,-0.026603544130921364,0.5509276986122131,0.07689485004618546,-0.5426982641220093,0.1217668354511261,-0.5693018436431885,0.5734150409698486,2.268505811691284,0.9969916343688965,,,,,,,
,,,,,,,,,,,,,,,,,,,,,,,,,,0.004469749052077532,0.17456601560115814,0.16806775331497192,0.004469749052077532,0.17456601560115814,0.16806775331497192,
,,,,,,,,,,,,,,,,,,,,,,,,,,0.002776447916403413,0.15467579662799835,0.15037143230438232,0.002776447916403413,0.15467579662799835,0.15037143230438232,
,,,,,,,,,,,,,,,,,,,,,,,,,,0.0018290819134563208,0.13910865783691406,0.1348629891872406,0.0018290819134563208,0.13910865783691406,0.1348629891872406,
,,,,,,,,,,,,,,,,,,,,,,,,,,0.0021021394059062004,0.12841084599494934,0.11761067062616348,0.0021021394059062004,0.12841084599494934,0.11761067062616348,
,,,,,,,,,,,,,,,,,,,,,,,,,,0.0017815433675423265,0.11542538553476334,0.10097019374370575,0.0017815433675423265,0.11542538553476334,0.10097019374370575,
,,,,,,,,,,,,,,,,,,,,,,,,,,0.0022531270515173674,0.10006317496299744,0.09225621819496155,0.0022531270515173674,0.10006317496299744,0.09225621819496155,
,,,,,,,,,,,,,,,,,,,,,,,,,,,,,,,,-1.64
4584580000.0,80.08,-1.8200000524520874,11990518784.0,16.972525799184012,32.0,-0.007913123816251755,135168.0,315.72223472595215,5.622238785640832e-15,0.0,2.0371134281158447,-0.020371131598949432,0.09794003516435623,-0.02037113346159458,1.862645149230957e-09,0.0,0.08836576342582703,0.43372511863708496,0.6309814769358695,-0.6976418495178223,0.4519864618778229,-0.6092760562896729,0.7139872908592224,241.33119893074036,0.9967637062072754,,,,,,,
4584580000.0,76.39,-1.5700000524520874,12041169408.0,1741.3276745496637,33.0,-0.012192427180707455,139264.0,318.074462890625,5.715913853343579e-15,0.0,2.0312204360961914,-0.02031220681965351,0.08410125970840454,-0.020312203094363213,-3.725290298461914e-09,0.0,0.08333108574151993,0.40161898732185364,0.6524291327082665,-0.6968163847923279,0.45816799998283386,-0.6134853363037109,0.6812282204627991,2.3522281646728516,0.9967679977416992,,,,,,,
4584580000.0,74.26,-1.7400000095367432,12041169408.0,1777.252973300657,34.0,-0.011394884437322617,143360.0,320.3791432380676,5.3550913703404035e-15,0.0,2.089968681335449,-0.020899690687656403,0.0982886552810669,-0.020899686962366104,-3.725290298461914e-09,0.0,0.06784283369779587,0.4382026195526123,0.6306412332492594,-0.6145415306091309,0.48752373456954956,-0.5466986894607544,0.7210257053375244,2.304680347442627,0.996586799621582,,,,,,,
4584580000.0,72.42,-1.5,12041169408.0,1775.2627531848282,35.0,-0.008212849497795105,147456.0,322.686407327652,5.386316392907986e-15,0.0,2.1311519145965576,-0.021311506628990173,0.07512177526950836,-0.02131151780486107,1.1175870895385742e-08,0.0,0.09114862978458405,0.37678924202919006,0.6536503640469016,-0.5469732284545898,0.4590758681297302,-0.455824613571167,0.64023756980896,2.3072640895843506,0.996959924697876,,,,,,,
4584580000.0,72.44,-1.100000023841858,12041169408.0,1746.4367218868817,36.0,-0.007644805125892162,151552.0,325.0317542552948,5.658667978636345e-15,0.0,2.1885104179382324,-0.021885110065340996,0.08874062448740005,-0.021885104477405548,-5.587935447692871e-09,0.0,0.0702361911535263,0.4154398739337921,0.5584489048902264,-0.45415639877319336,0.44630396366119385,-0.38392019271850586,0.6251981258392334,2.3453469276428223,0.9969637393951416,,,,,,,
4584580000.0,78.35,-1.1799999475479126,12041169408.0,1739.9356850866627,37.0,-0.007791510317474604,155648.0,327.3858642578125,5.042841144664578e-15,0.0,2.1874003410339355,-0.021873993799090385,0.06621769070625305,-0.02187400311231613,9.313225746154785e-09,0.0,0.02459024265408516,0.36312931776046753,0.6372395087789013,-0.3880603015422821,0.43552929162979126,-0.36347007751464844,0.6029083728790283,2.3541100025177,0.9966614246368408,,,,,,,
4584580000.0,75.95,-1.5099999904632568,12041169408.0,1719.7668771178169,38.0,-0.011052502319216728,159744.0,329.7675824165344,5.2284565565940966e-15,0.0,2.213311195373535,-0.02213311567902565,0.11952737718820572,-0.02213311195373535,-3.725290298461914e-09,0.0,-0.007629947736859322,0.48893240094184875,0.5161106601589265,-0.3545304536819458,0.46993592381477356,-0.36216041445732117,0.7028712630271912,2.381718158721924,0.9971144199371338,,,,,,,
4584580000.0,71.11,-1.440000057220459,12041169408.0,1820.7647168297171,39.0,-0.007360182702541351,163840.0,332.0171866416931,5.1746801288388156e-15,0.0,2.2375237941741943,-0.022375231608748436,0.08051547408103943,-0.022375237196683884,5.587935447692871e-09,0.0,0.02967916801571846,0.40023642778396606,0.6128090801720281,-0.35288354754447937,0.5434693694114685,-0.32320436835289,0.643211841583252,2.2496042251586914,0.9969666004180908,,,,,,,
4584580000.0,75.85,-1.75,12041169408.0,1769.8845346559012,40.0,-0.015187704004347324,167936.0,334.3314619064331,5.072331443756184e-15,0.0,2.242062568664551,-0.022420629858970642,0.10472983121871948,-0.022420624271035194,-5.122274160385132e-09,0.0,-0.07118726521730423,0.4521525800228119,0.6434251406803742,-0.3669319152832031,0.5426579713821411,-0.43811917304992676,0.7571982741355896,2.3142752647399902,0.9967246055603027,,,,,,,
4584580000.0,77.32,-2.359999895095825,12041169408.0,1783.3556410885362,41.0,-0.013627088628709316,172032.0,336.62825560569763,4.9873299934333204e-15,0.0,2.242487668991089,-0.022424891591072083,0.11007554829120636,-0.02242487668991089,-1.4901161193847656e-08,0.0,-0.024880142882466316,0.46859970688819885,0.6227911032077451,-0.39661064743995667,0.6117198467254639,-0.4214908182621002,0.762976348400116,2.2967936992645264,0.9969079494476318,,,,,,,
4584580000.0,73.78,-2.1600000858306885,12041169408.0,1765.6029342529885,42.0,-0.01166995707899332,176128.0,338.9481430053711,5.098352295895836e-15,0.0,2.2164292335510254,-0.022164292633533478,0.11615253239870071,-0.022164292633533478,0.0,0.0,0.02225988730788231,0.48152482509613037,0.6059983270173932,-0.4510396718978882,0.6835161447525024,-0.42877984046936035,0.7671312689781189,2.319887399673462,0.9968066215515137,,,,,,,
4584580000.0,74.92,-1.8200000524520874,12041169408.0,1804.1153869741456,43.0,-0.01016759593039751,180224.0,341.21850776672363,5.2475385148298415e-15,0.0,2.1384835243225098,-0.021384838968515396,0.10037121176719666,-0.021384835243225098,-3.725290298461914e-09,0.0,0.05911212041974068,0.44418054819107056,0.6450404055192256,-0.3960166573524475,0.6293349862098694,-0.3369045555591583,0.7455384731292725,2.270364761352539,0.9969093799591064,,,,,,,
4584580000.0,71.31,-1.340000033378601,12041169408.0,1762.6753207365043,44.0,-0.007396558299660683,184320.0,343.54224824905396,5.512951206654293e-15,0.0,2.0668582916259766,-0.020668575540184975,0.06144584342837334,-0.02066858299076557,7.450580596923828e-09,0.0,0.009979303926229477,0.3504598140716553,0.6030668931825378,-0.19594231247901917,0.46190881729125977,-0.18596303462982178,0.556262195110321,2.3237404823303223,0.9966180324554443,,,,,,,
4584580000.0,72.15,-1.2200000286102295,12041169408.0,1737.9208707879377,45.0,-0.008132658898830414,188416.0,345.89908742904663,5.757547216767023e-15,0.0,2.040769577026367,-0.020407695323228836,0.0675494596362114,-0.020407695323228836,0.0,0.0,-0.0249436404556036,0.36675548553466797,0.647763804145058,-0.1628340631723404,0.4636668562889099,-0.18777771294116974,0.6179589033126831,2.356839179992676,0.9967257976531982,,,,,,,
4584580000.0,74.48,-0.949999988079071,12041169408.0,1763.1773296773638,46.0,-0.005093577317893505,192512.0,348.22216629981995,6.163472510145596e-15,0.0,1.9706218242645264,-0.019706211984157562,0.05614395812153816,-0.01970621757209301,5.587935447692871e-09,0.0,0.010822451673448086,0.3349599838256836,0.532637420514922,-0.10723952949047089,0.39684778451919556,-0.09641708433628082,0.4899660050868988,2.3230788707733154,0.9967217445373535,,,,,,,
4584580000.0,73.18,-1.2000000476837158,12041169408.0,1794.451736923434,47.0,-0.010571932420134544,196608.0,350.504757642746,6.952771691715043e-15,0.0,1.9199409484863281,-0.01919940672814846,0.05596543103456497,-0.01919940859079361,1.862645149230957e-09,0.0,-0.02078878879547119,0.33395496010780334,0.6714318660491334,-0.15140965580940247,0.45598000288009644,-0.17219844460487366,0.582606315612793,2.2825913429260254,0.9966349601745605,,,,,,,
4584580000.0,73.59,-1.2300000190734863,12041169408.0,1753.0194340724472,48.0,-0.006912214681506157,200704.0,352.84129762649536,7.476658181460039e-15,0.0,1.9100310802459717,-0.019100315868854523,0.052584920078516006,-0.019100310280919075,-4.6566128730773926e-09,0.0,-0.017511440441012383,0.3238654136657715,0.6230259088673847,-0.05614590272307396,0.38351574540138245,-0.07365734130144119,0.5274834036827087,2.3365399837493896,0.9967660903930664,,,,,,,
4584580000.0,73.58,-1.0800000429153442,12041169408.0,1740.67857841609,49.0,-0.007417462766170502,204800.0,355.1944029331207,6.9909356081865326e-15,0.0,1.9344215393066406,-0.01934422366321087,0.046307601034641266,-0.019344214349985123,-9.313225746154785e-09,0.0,-0.04305563122034073,0.30130311846733093,0.6719768612326601,-0.06299728900194168,0.384118914604187,-0.10605292022228241,0.5260794758796692,2.353105306625366,0.997058629989624,,,,,,,
4584580000.0,70.31,-1.0,12041169408.0,1763.8409627564918,50.0,-0.005165706388652325,208896.0,357.51660776138306,6.702971511174383e-15,0.0,1.9621442556381226,-0.019621429964900017,0.05041872709989548,-0.01962144300341606,1.30385160446167e-08,0.0,-0.03327042609453201,0.3158399760723114,0.6621431890263132,-0.07986527681350708,0.37659507989883423,-0.1131356954574585,0.5433763861656189,2.322204828262329,0.9970147609710693,,,,,,,
4584580000.0,73.32,-0.9800000190734863,12041169408.0,1779.326347301048,51.0,-0.007359843235462904,212992.0,359.8186025619507,6.91634249871953e-15,0.0,2.0002527236938477,-0.020002521574497223,0.04972858354449272,-0.02000252716243267,5.587935447692871e-09,0.0,-0.016955280676484108,0.3149506449699402,0.7213920557250749,-0.11354567855596542,0.4607502222061157,-0.13050095736980438,0.5966858267784119,2.301994800567627,0.9969637393951416,,,,,,,
4584580000.0,72.6,-1.1699999570846558,12041169408.0,1725.2838338468719,52.0,-0.01002064161002636,217088.0,362.1927046775818,6.855627177060342e-15,0.0,1.9637153148651123,-0.019637152552604675,0.06388255953788757,-0.019637152552604675,-9.313225746154785e-10,0.0,0.011184930801391602,0.35731106996536255,0.6479904301174203,-0.14473113417625427,0.46734365820884705,-0.13354621827602386,0.6022394299507141,2.3741021156311035,0.9980695247650146,,,,,,,
4584580000.0,69.03,-1.0,12041169408.0,1748.317428476176,53.0,-0.004243538714945316,221184.0,364.53552865982056,6.5867450382839365e-15,0.0,2.010861396789551,-0.020108621567487717,0.04570010304450989,-0.02010861411690712,-7.450580596923828e-09,0.0,0.030369462445378304,0.30083218216896057,0.7416066148917988,-0.2485041618347168,0.5413661003112793,-0.21813471615314484,0.5918117165565491,2.3428239822387695,0.9970192909240723,,,,,,,
4584580000.0,71.93,-0.8100000023841858,12041169408.0,1762.63860842008,54.0,-0.007184569723904133,225280.0,366.85931754112244,6.274494812608111e-15,0.0,2.0671207904815674,-0.020671214908361435,0.05000011622905731,-0.020671207457780838,-7.450580596923828e-09,0.0,0.018053680658340454,0.31575092673301697,0.7395326034192062,-0.22196072340011597,0.577983021736145,-0.2039070427417755,0.6186826229095459,2.32378888130188,0.9969298839569092,,,,,,,
4584580000.0,71.09,-0.8999999761581421,12041169408.0,1793.0145358436564,55.0,-0.0036683224607259035,229376.0,369.1437385082245,6.3629657098829284e-15,0.0,2.0703742504119873,-0.020703738555312157,0.0524183064699173,-0.020703742280602455,3.725290298461914e-09,0.0,0.05271512269973755,0.3195037841796875,0.632900153190578,-0.1938234269618988,0.5198152661323547,-0.14110830426216125,0.5273317098617554,2.284420967102051,0.9971537590026855,,,,,,,
4584580000.0,73.09,-0.4099999964237213,12041169408.0,1740.815449966222,56.0,-0.0031919744797050953,233472.0,371.49665880203247,6.565928356572215e-15,0.0,2.1750879287719727,-0.021750878542661667,0.047876447439193726,-0.021750878542661667,9.313225746154785e-10,0.0,0.023493755608797073,0.30858415365219116,0.6767997983622511,-0.13181711733341217,0.4874679446220398,-0.1083233654499054,0.5427974462509155,2.3529202938079834,0.997063398361206,,,,,,,
4584580000.0,74.62,-0.6800000071525574,12041169408.0,1804.3044840563593,57.0,-0.005298602394759655,237568.0,373.76678562164307,6.520825546196818e-15,0.0,2.2210843563079834,-0.02221083641052246,0.03542598336935043,-0.022210843861103058,7.450580596923828e-09,0.0,-0.0184346791356802,0.2655736207962036,0.722737986818692,-0.026374781504273415,0.3965111970901489,-0.04480946063995361,0.5043590068817139,2.2701268196105957,0.996588945388794,,,,,,,
4584580000.0,75.23,-0.6399999856948853,12041169408.0,1786.1334463935996,58.0,-0.0009894229006022215,241664.0,376.0600073337555,7.15573433840433e-15,0.0,2.224562644958496,-0.0222456231713295,0.062313783913850784,-0.022245625033974648,9.313225746154785e-10,0.0,0.021128978580236435,0.35243645310401917,0.49050312524449224,-0.06588472425937653,0.4111054241657257,-0.04475574195384979,0.4937533736228943,2.2932217121124268,0.9970505237579346,,,,,,,
4584580000.0,79.08,-0.7099999785423279,12041169408.0,1733.018252210548,59.0,-0.01026802510023117,245760.0,378.42351388931274,6.6856242764146145e-15,0.0,2.274783134460449,-0.022747844457626343,0.09591131657361984,-0.022747831419110298,-1.30385160446167e-08,0.0,-0.12066631019115448,0.4210766851902008,0.5854042787502494,-0.05305829644203186,0.4242197573184967,-0.17372460663318634,0.6539563536643982,2.363506555557251,0.9969978332519531,,,,,,,
4584580000.0,76.88,-1.3899999856948853,12041169408.0,1794.415563278959,60.0,-0.00792478583753109,249856.0,380.70615124702454,6.3629657098829284e-15,0.0,2.3047945499420166,-0.023047933354973793,0.0590294674038887,-0.02304794453084469,1.1175870895385742e-08,0.0,-0.0750018060207367,0.33535224199295044,0.6810731092896664,-0.0844179093837738,0.4164043366909027,-0.1594197303056717,0.593821108341217,2.282637357711792,0.9967172145843506,,,,,,,
4584580000.0,72.21,-0.7099999785423279,12041169408.0,1756.0173370724453,61.0,-0.001492053852416575,253952.0,383.038702249527,6.611031166947612e-15,0.0,2.2750837802886963,-0.022750845178961754,0.04275190830230713,-0.022750837728381157,-7.450580596923828e-09,0.0,0.01507298182696104,0.29205724596977234,0.5858702737594668,-0.05094549059867859,0.36391544342041016,-0.035872504115104675,0.4538368880748749,2.3325510025024414,0.9965465068817139,,,,,,,
4584580000.0,73.37,-0.47999998927116394,12041169408.0,1808.4868559479776,62.0,-0.005856516771018505,258048.0,385.30357909202576,7.237266341775239e-15,0.0,2.2857065200805664,-0.022857077419757843,0.06856220960617065,-0.0228570643812418,-1.210719347000122e-08,0.0,-0.028001658618450165,0.36928799748420715,0.7424682485743248,-0.21382036805152893,0.5587209463119507,-0.2418220341205597,0.7276957035064697,2.2648768424987793,0.9968512058258057,,,,,,,
4630960000.0,73.47,-0.8500000238418579,12041169408.0,1796.7984514366026,63.0,-0.006867548450827599,262144.0,387.5831892490387,7.49747486317176e-15,0.0,2.296283721923828,-0.022962825372815132,0.07389107346534729,-0.022962836548686028,1.1175870895385742e-08,0.0,7.400475442409515e-05,0.3844713568687439,0.7119012711904753,-0.28796422481536865,0.5971311330795288,-0.2878901958465576,0.7162973284721375,2.2796101570129395,0.9971435070037842,,,,,,,
,,,,,,,,,,,,,,,,,,,,,,,,,,0.017001213505864143,0.10519164800643921,0.0797356441617012,0.017001213505864143,0.10519164800643921,0.0797356441617012,
,,,,,,,,,,,,,,,,,,,,,,,,,,0.008494313806295395,0.07527530938386917,0.06788504123687744,0.008494313806295395,0.07527530938386917,0.06788504123687744,
,,,,,,,,,,,,,,,,,,,,,,,,,,0.006856427527964115,0.07007371634244919,0.06479410827159882,0.006856427527964115,0.07007371634244919,0.06479410827159882,
,,,,,,,,,,,,,,,,,,,,,,,,,,0.006027748808264732,0.06384748965501785,0.06058592349290848,0.006027748808264732,0.06384748965501785,0.06058592349290848,
,,,,,,,,,,,,,,,,,,,,,,,,,,0.005583622958511114,0.05987182632088661,0.057822562754154205,0.005583622958511114,0.05987182632088661,0.057822562754154205,
,,,,,,,,,,,,,,,,,,,,,,,,,,0.004912770353257656,0.05654541030526161,0.05424358323216438,0.004912770353257656,0.05654541030526161,0.05424358323216438,
,,,,,,,,,,,,,,,,,,,,,,,,,,,,,,,,-0.73
4633572000.0,74.03,-0.9100000262260437,11990521856.0,16.980566055749513,64.0,-0.005385762546211481,266240.0,628.8001184463501,6.330005963839369e-15,0.0,2.339545726776123,-0.023395461961627007,0.0414833128452301,-0.02339545637369156,-5.587935447692871e-09,0.0,0.008405353873968124,0.2879517376422882,0.7696247939286367,-0.14642885327339172,0.4649307429790497,-0.1380234956741333,0.5999318361282349,241.2169291973114,0.9967739582061768,,,,,,,
4633572000.0,74.62,-0.7099999785423279,12041169408.0,1800.884325216189,65.0,-0.003643782576546073,270336.0,631.0745565891266,6.87817858224804e-15,0.0,2.332491159439087,-0.023324914276599884,0.04506951943039894,-0.023324910551309586,-3.026798367500305e-09,0.0,0.029192570596933365,0.298845499753952,0.7416674480525278,-0.1901380866765976,0.4999454915523529,-0.16094550490379333,0.5879726409912109,2.2744381427764893,0.9967324733734131,,,,,,,
4633572000.0,74.07,-0.5699999928474426,12041169408.0,1798.7549739932392,66.0,-0.0025230657774955034,274432.0,633.3516871929169,6.5867450382839365e-15,0.0,2.4131290912628174,-0.024131279438734055,0.030647384002804756,-0.02413129061460495,1.1175870895385742e-08,0.0,0.03461669757962227,0.24517570436000824,0.8320424215410779,-0.18577714264392853,0.5327358245849609,-0.15116044878959656,0.598242998123169,2.277130603790283,0.9967300891876221,,,,,,,
4633572000.0,72.45,-0.6700000166893005,12041169408.0,1807.786165258589,67.0,-0.0073324828408658504,278528.0,635.6174418926239,6.432354648922001e-15,0.0,2.4255168437957764,-0.024255171418190002,0.05927827209234238,-0.024255167692899704,-3.725290298461914e-09,0.0,-0.0076154544949531555,0.3442781865596771,0.798959368087739,-0.27796298265457153,0.6409242153167725,-0.2855784296989441,0.7678344249725342,2.2657546997070312,0.9975988864898682,,,,,,,
4633572000.0,73.38,-0.6399999856948853,12041169408.0,1816.6036067786688,68.0,-0.0007612309418618679,282624.0,637.8721990585327,6.583275591331983e-15,0.0,2.4422383308410645,-0.024422377347946167,0.052216578274965286,-0.024422382935881615,5.587935447692871e-09,0.0,0.039100609719753265,0.32082614302635193,0.739609635366806,-0.1852239966392517,0.5646981596946716,-0.14612339437007904,0.6287201046943665,2.2547571659088135,0.996732234954834,,,,,,,
4633572000.0,73.51,-0.5600000023841858,12041169408.0,1802.3290700267876,69.0,-0.006104455795139074,286720.0,640.1448140144348,6.4167421376382094e-15,0.0,2.4271814823150635,-0.024271821603178978,0.05105191841721535,-0.02427181415259838,-7.450580596923828e-09,0.0,0.04352773725986481,0.31659698486328125,0.7771298937861548,-0.2484874427318573,0.6156147718429565,-0.2049596905708313,0.670626699924469,2.2726149559020996,0.9967281818389893,,,,,,,
4633572000.0,77.83,-0.8299999833106995,12041169408.0,1811.8809443831633,70.0,-0.00458927545696497,290816.0,642.4054481983185,7.048181482893767e-15,0.0,2.4536519050598145,-0.024536510929465294,0.05699954926967621,-0.02453651838004589,7.450580596923828e-09,0.0,0.012400696985423565,0.33745092153549194,0.839988715047317,-0.3297659158706665,0.7649749517440796,-0.31736522912979126,0.8435975313186646,2.260634183883667,0.9967656135559082,,,,,,,
4633572000.0,80.0,-0.800000011920929,12041169408.0,1740.2672114548136,71.0,-0.005483382847160101,294912.0,644.7591097354889,6.314393452555578e-15,0.0,2.493823528289795,-0.02493823505938053,0.07883888483047485,-0.02493823505938053,0.0,0.0,0.009926733560860157,0.3970109820365906,0.7350943152911371,-0.18549418449401855,0.6677695512771606,-0.17556746304035187,0.7713595032691956,2.35366153717041,0.9972107410430908,,,,,,,
4633572000.0,75.45,-0.7699999809265137,12041169408.0,1787.4647806931525,72.0,-0.006128253415226936,299008.0,647.0506234169006,6.794911855401153e-15,0.0,2.482597589492798,-0.024825982749462128,0.06080571934580803,-0.02482597529888153,-7.450580596923828e-09,0.0,0.0516040064394474,0.34493115544319153,0.7583834908498737,-0.2062765657901764,0.6787437200546265,-0.1546725630760193,0.7017285227775574,2.291513681411743,0.9985859394073486,,,,,,,
4633572000.0,75.6,-0.7200000286102295,12041169408.0,1802.204852247974,73.0,-0.003965354990214109,303104.0,649.3233950138092,6.449701883681769e-15,0.0,2.4854583740234375,-0.02485458366572857,0.06014803424477577,-0.02485458366572857,0.0,0.0,0.018157752230763435,0.34640389680862427,0.7449785244164691,-0.2031751424074173,0.6131587028503418,-0.185017392039299,0.6859530806541443,2.2727715969085693,0.9968345165252686,,,,,,,
4633572000.0,78.27,-0.7699999809265137,12041169408.0,1762.4823721182604,74.0,-0.006025214679539204,307200.0,651.6473898887634,6.6856242764146145e-15,0.0,2.4836714267730713,-0.024836720898747444,0.07270723581314087,-0.024836713448166847,-7.450580596923828e-09,0.0,-0.03940889239311218,0.37933698296546936,0.7675853819577622,-0.15320506691932678,0.6068926453590393,-0.19261395931243896,0.7868527770042419,2.3239948749542236,0.9968292713165283,,,,,,,
4633572000.0,76.82,-1.090000033378601,12041169408.0,1729.6003197469408,75.0,-0.010270854458212852,311296.0,654.0155670642853,7.249409406107077e-15,0.0,2.4383935928344727,-0.024383937940001488,0.05709003657102585,-0.02438393607735634,-2.3283064365386963e-09,0.0,-0.024212054908275604,0.3370780050754547,0.8121972181407806,-0.08796636760234833,0.7066096663475037,-0.11217842251062393,0.7778205871582031,2.3681771755218506,0.9967021942138672,,,,,,,
4633572000.0,76.4,-1.149999976158142,12041169408.0,1738.8704041801225,76.0,-0.0038603367283940315,315392.0,656.371119260788,7.259817746962938e-15,0.0,2.4590189456939697,-0.024590177461504936,0.05014515668153763,-0.02459018863737583,1.1175870895385742e-08,0.0,-0.02217395231127739,0.3159478008747101,0.8236934207716118,-0.10931210219860077,0.6679844856262207,-0.13148605823516846,0.7524558901786804,2.3555521965026855,0.9966938495635986,,,,,,,
4633572000.0,78.14,-0.7200000286102295,12041169408.0,1779.70882208795,77.0,-0.006054399535059929,319488.0,658.672619342804,7.478392904936015e-15,0.0,2.4236793518066406,-0.024236800149083138,0.09783212840557098,-0.02423679269850254,-7.450580596923828e-09,0.0,-0.04978629946708679,0.439582496881485,0.7580339302914862,-0.07336507737636566,0.6967843174934387,-0.12315137684345245,0.8936411142349243,2.301500082015991,0.9969899654388428,,,,,,,
4633572000.0,74.98,-0.6000000238418579,12041169408.0,1720.3770382191979,78.0,-0.0037393616512417793,323584.0,661.0534927845001,7.173081573164097e-15,0.0,2.4244942665100098,-0.02424493432044983,0.0509772002696991,-0.024244941771030426,7.450580596923828e-09,0.0,-0.025315914303064346,0.31833669543266296,0.832497300344885,-0.1071319580078125,0.7435360550880432,-0.13244786858558655,0.7778140902519226,2.380873441696167,0.9967005252838135,,,,,,,
4633572000.0,77.66,-0.4000000059604645,12041169408.0,1713.4592736153986,79.0,0.00012925569899380207,327680.0,663.4439785480499,7.351758091189708e-15,0.0,2.4689035415649414,-0.02468903549015522,0.03838029131293297,-0.02468903549015522,0.0,0.0,0.04192141443490982,0.27390050888061523,0.8766901880379835,-0.08647789061069489,0.7437499165534973,-0.04455648362636566,0.7799989581108093,2.3904857635498047,0.9968152046203613,,,,,,,
4633572000.0,78.02,-0.12999999523162842,12041169408.0,1761.1031256743215,80.0,-0.0027223126962780952,331776.0,665.769793510437,7.474923457984062e-15,0.0,2.383553981781006,-0.02383553981781006,0.05624145269393921,-0.02383553981781006,9.313225746154785e-10,0.0,0.04654785245656967,0.33217939734458923,0.7821929468632,-0.18579623103141785,0.6706739068031311,-0.13924838602542877,0.7117651104927063,2.325814962387085,0.9967377185821533,,,,,,,
4633572000.0,75.32,-0.23000000417232513,12041169408.0,1734.5658992651765,81.0,-0.000519897323101759,335872.0,668.1311912536621,7.344819197285801e-15,0.0,2.465146064758301,-0.02465147152543068,0.06288343667984009,-0.024651460349559784,-1.0710209608078003e-08,0.0,-0.0048857638612389565,0.35464590787887573,0.7577365666315825,-0.038687314838171005,0.6306108236312866,-0.04357307404279709,0.720528244972229,2.3613977432250977,0.9969372749328613,,,,,,,
4633572000.0,77.84,-0.4399999976158142,12041169408.0,1775.9518558321338,82.0,-0.005599931813776493,339968.0,670.4375600814819,7.835745940987238e-15,0.0,2.423006296157837,-0.024230055510997772,0.07469186186790466,-0.02423006296157837,7.450580596923828e-09,0.0,0.020956380292773247,0.385980486869812,0.7864536729284601,-0.23618188500404358,0.7397534847259521,-0.21522550284862518,0.83525550365448,2.306368827819824,0.9968130588531494,,,,,,,
4633572000.0,77.37,-0.5299999713897705,12041169408.0,1747.6295111157408,83.0,-0.002088752808049321,344064.0,672.7813062667847,7.19910242530375e-15,0.0,2.5237393379211426,-0.025237392634153366,0.05472782999277115,-0.025237392634153366,0.0,0.0,0.008250816725194454,0.3307783305644989,0.8168283972807002,-0.12091299891471863,0.7234668731689453,-0.1126621887087822,0.7728726863861084,2.3437461853027344,0.9967520236968994,,,,,,,
4633572000.0,77.75,-0.4699999988079071,12041169408.0,1725.4604050524035,84.0,-0.005885086953639984,348160.0,675.1551654338837,7.514822097931528e-15,0.0,2.5462729930877686,-0.02546272799372673,0.09181666374206543,-0.02546272985637188,1.862645149230957e-09,0.0,-0.03586205840110779,0.42707350850105286,0.6720512043159717,-0.13119783997535706,0.6596147418022156,-0.16705989837646484,0.7457609176635742,2.373859167098999,0.9970376491546631,,,,,,,
4633572000.0,78.51,-0.75,12041169408.0,1748.034761940374,85.0,-0.0036729280836880207,352256.0,677.4983682632446,7.0013439490423934e-15,0.0,2.583235025405884,-0.025832349434494972,0.08589854836463928,-0.025832349434494972,0.0,0.0,-0.029900096356868744,0.41345471143722534,0.668017040462326,-0.21162906289100647,0.6621754169464111,-0.241529181599617,0.7175796031951904,2.343202829360962,0.9967780113220215,,,,,,,
4633572000.0,79.08,-0.6399999856948853,12041169408.0,1804.1926884061988,86.0,-0.0030178879387676716,356352.0,679.7686357498169,7.074202335033419e-15,0.0,2.5935916900634766,-0.02593592368066311,0.09746450185775757,-0.025935916230082512,-7.450580596923828e-09,0.0,-0.025624718517065048,0.4408172369003296,0.5979032767193047,-0.0010547144338488579,0.509316623210907,-0.02667943388223648,0.6951736211776733,2.2702674865722656,0.9968254566192627,,,,,,,
4633572000.0,80.23,-0.5799999833106995,12041169408.0,1732.2635416044875,87.0,-0.0053869932889938354,360448.0,682.1331720352173,7.134917656692608e-15,0.0,2.607616424560547,-0.026076151058077812,0.08571400493383408,-0.026076164096593857,1.30385160446167e-08,0.0,-0.07425454258918762,0.4073754847049713,0.3848909115254717,0.10617169737815857,0.4288226068019867,0.03191715106368065,0.5194202065467834,2.3645362854003906,0.996943473815918,,,,,,,
4633572000.0,83.08,-0.4300000071525574,12041169408.0,1795.5896078676271,88.0,-0.00026338547468185425,364544.0,684.4143168926239,6.4878658001532585e-15,0.0,2.5955286026000977,-0.025955282151699066,0.060343965888023376,-0.025955285876989365,3.725290298461914e-09,0.0,0.018491100519895554,0.34695157408714294,0.5390788154032307,-0.03235449641942978,0.4401489198207855,-0.013863399624824524,0.5110407471656799,2.281144857406616,0.9969444274902344,,,,,,,
4633572000.0,84.01,-0.25,12041169408.0,1728.2402219890164,89.0,-0.002771052299067378,368640.0,686.7843577861786,7.115835698456863e-15,0.0,2.5778040885925293,-0.025778040289878845,0.07461117953062057,-0.025778040289878845,0.0,0.0,-0.02264341339468956,0.38567593693733215,0.4844619777099729,-0.012840582057833672,0.37094664573669434,-0.03548399358987808,0.5371458530426025,2.3700408935546875,0.996734619140625,,,,,,,
4633572000.0,80.27,-0.17000000178813934,12041169408.0,1759.4504803090595,90.0,0.00013211561599746346,372736.0,689.112357378006,7.481862351887969e-15,0.0,2.5726308822631836,-0.025726301595568657,0.06956728547811508,-0.025726309046149254,7.450580596923828e-09,0.0,0.03678916394710541,0.37123411893844604,0.5540403548753362,-0.043019771575927734,0.4261719286441803,-0.006230602040886879,0.5559043884277344,2.3279995918273926,0.9968791007995605,,,,,,,
4633572000.0,77.93,0.09000000357627869,12041169408.0,1746.9508392291677,91.0,0.0005298446631059051,376832.0,691.4570140838623,8.174017018802715e-15,0.0,2.5220065116882324,-0.02522006444633007,0.059047915041446686,-0.02522006444633007,0.0,0.0,0.051370345056056976,0.33983099460601807,0.49124995674689764,-0.059584841132164,0.40552666783332825,-0.008214494213461876,0.47644278407096863,2.3446567058563232,0.9969909191131592,,,,,,,
4633572000.0,78.61,0.05999999865889549,12041169408.0,1805.8762044565958,92.0,0.0009300160454586148,380928.0,693.7251651287079,9.39352762241441e-15,0.0,2.48508358001709,-0.02485082857310772,0.04164192080497742,-0.024850836023688316,7.450580596923828e-09,0.0,0.01794593781232834,0.288066029548645,0.7138780212430773,-0.0689316987991333,0.4032989740371704,-0.05098576098680496,0.5385381579399109,2.268151044845581,0.9969761371612549,,,,,,,
4633572000.0,77.34,-0.1899999976158142,12041169408.0,1778.1719946335645,93.0,-0.003325464203953743,385024.0,696.0286543369293,9.370976217226712e-15,0.0,2.428433418273926,-0.02428434044122696,0.05935593694448471,-0.024284332990646362,-7.450580596923828e-09,0.0,0.005947887897491455,0.34453660249710083,0.6709480887519483,-0.12301399558782578,0.43687769770622253,-0.11706611514091492,0.600624680519104,2.3034892082214355,0.9968650341033936,,,,,,,
4633572000.0,78.68,-0.1599999964237213,12041169408.0,1691.663450938974,94.0,0.0004001114866696298,389120.0,698.4499397277832,9.910475218255499e-15,0.0,2.437896728515625,-0.02437896654009819,0.045839905738830566,-0.02437896654009819,0.0,0.0,0.023879563435912132,0.30188047885894775,0.43229637622603356,-0.018611226230859756,0.30554988980293274,0.005268333479762077,0.40065836906433105,2.421285390853882,0.9967923164367676,,,,,,,
4633572000.0,81.78,0.09000000357627869,12041169408.0,1785.6841695190537,95.0,0.0009362308774143457,393216.0,700.743738412857,9.901801600875615e-15,0.0,2.4757227897644043,-0.024757234379649162,0.04828342795372009,-0.024757226929068565,-7.450580596923828e-09,0.0,0.04108528792858124,0.30806171894073486,0.4944076054724418,-0.04728224128484726,0.33485156297683716,-0.006196948233991861,0.433248907327652,2.2937986850738525,0.9966354370117188,,,,,,,
,,,,,,,,,,,,,,,,,,,,,,,,,,0.017680535092949867,0.09320879727602005,0.06908243894577026,0.017680535092949867,0.09320879727602005,0.06908243894577026,
,,,,,,,,,,,,,,,,,,,,,,,,,,0.00825705286115408,0.06601088494062424,0.059626255184412,0.00825705286115408,0.06601088494062424,0.059626255184412,
,,,,,,,,,,,,,,,,,,,,,,,,,,0.006512352731078863,0.05848630890250206,0.05488821864128113,0.006512352731078863,0.05848630890250206,0.05488821864128113,
,,,,,,,,,,,,,,,,,,,,,,,,,,0.006393625866621733,0.053062792867422104,0.050628457218408585,0.006393625866621733,0.053062792867422104,0.050628457218408585,
,,,,,,,,,,,,,,,,,,,,,,,,,,0.005336090922355652,0.049091942608356476,0.047719623893499374,0.005336090922355652,0.049091942608356476,0.047719623893499374,
,,,,,,,,,,,,,,,,,,,,,,,,,,0.00591230345889926,0.047167882323265076,0.04897052422165871,0.00591230345889926,0.047167882323265076,0.04897052422165871,
,,,,,,,,,,,,,,,,,,,,,,,,,,,,,,,,-0.3
4633848000.0,79.85,0.33000001311302185,11990521856.0,16.98970983489744,96.0,0.003352524247020483,397312.0,941.8308458328247,7.150530167976399e-15,0.0,2.536195755004883,-0.025361953303217888,0.055947545915842056,-0.025361957028508186,3.725290298461914e-09,0.0,0.054558560252189636,0.3300682306289673,0.5851029207129584,-0.050788700580596924,0.448621928691864,0.003769857808947563,0.5124288201332092,241.08710741996765,0.9967472553253174,,,,,,,
4633848000.0,80.2,0.36000001430511475,12041169408.0,1768.1320267444871,97.0,0.0006720051169395447,401408.0,944.1474149227142,7.755948661092305e-15,0.0,2.5517148971557617,-0.02551714889705181,0.06656733900308609,-0.02551714889705181,0.0,0.0,0.03323039412498474,0.3634042739868164,0.5626161702229231,-0.035859718918800354,0.4317958652973175,-0.0026293210685253143,0.5494885444641113,2.3165690898895264,0.9967477321624756,,,,,,,
4633848000.0,84.37,0.019999999552965164,12041169408.0,1686.3094271794905,98.0,0.001211618771776557,405504.0,946.5763878822327,7.743805596760467e-15,0.0,2.5616023540496826,-0.025616012513637543,0.07244683802127838,-0.025616023689508438,1.1175870895385742e-08,0.0,0.03495311737060547,0.37908709049224854,0.47441983725061765,-0.0061904992908239365,0.42220816016197205,0.028762614354491234,0.5229011178016663,2.4289729595184326,0.9968605041503906,,,,,,,
4633848000.0,80.03,-0.20999999344348907,12041169408.0,1731.978883004238,99.0,-0.0053916508331894875,409600.0,948.941312789917,7.641456911677835e-15,0.0,2.545503616333008,-0.025455035269260406,0.09260950982570648,-0.025455035269260406,0.0,0.0,-0.032533902674913406,0.4291917383670807,0.48220166759766425,-0.03258008137345314,0.40447714924812317,-0.06511399149894714,0.5964457988739014,2.364924907684326,0.9969067573547363,,,,,,,
4633848000.0,78.32,-0.20999999344348907,12041169408.0,1738.0091311931715,100.0,0.0014846143312752247,413696.0,951.298032283783,7.705641680288977e-15,0.0,2.568176746368408,-0.025681771337985992,0.06328920274972916,-0.025681767612695694,-3.725290298461914e-09,0.0,0.03150172159075737,0.35442447662353516,0.4411322548294482,0.02143019624054432,0.34397920966148376,0.05293191969394684,0.47409918904304504,2.356719493865967,0.9968268871307373,,,,,,,
4633848000.0,79.34,0.009999999776482582,12041169408.0,1772.1900602693627,101.0,0.0010811841348186135,417792.0,953.609296798706,8.335346302068558e-15,0.0,2.555757999420166,-0.02555757947266102,0.08469991385936737,-0.02555757947266102,0.0,0.0,0.015628766268491745,0.41133546829223633,0.4897438267012231,0.031445566564798355,0.41791480779647827,0.0470743328332901,0.5758402943611145,2.3112645149230957,0.9968709945678711,,,,,,,
4633848000.0,88.23,0.6100000143051147,12041169408.0,1798.4105806806313,102.0,0.004736602306365967,421888.0,955.8868634700775,7.381248390281314e-15,0.0,2.5615243911743164,-0.02561524696648121,0.07269923388957977,-0.02561524324119091,-3.725290298461914e-09,0.0,0.05395643040537834,0.3775207996368408,0.11154307536718433,0.12461695075035095,0.3576263189315796,0.1785733699798584,0.40051859617233276,2.27756667137146,0.996837854385376,,,,,,,
4633848000.0,85.79,0.550000011920929,12041169408.0,1741.8852354533733,103.0,0.0008138862904161215,425984.0,958.2383387088776,8.328407408164651e-15,0.0,2.555734157562256,-0.02555733546614647,0.06216243654489517,-0.025557341054081917,5.587935447692871e-09,0.0,0.02328726276755333,0.35187044739723206,0.42745964606948805,0.13768991827964783,0.38873937726020813,0.16097716987133026,0.46502870321273804,2.351475238800049,0.9967451095581055,,,,,,,
4633848000.0,83.61,0.17000000178813934,12041169408.0,1789.0145530881614,104.0,-0.00027186295483261347,430080.0,960.5278673171997,8.583411759133242e-15,0.0,2.538956880569458,-0.025389568880200386,0.08350245654582977,-0.025389568880200386,0.0,0.0,-0.07358536124229431,0.402031809091568,0.43083850669216783,0.16720585525035858,0.3336634039878845,0.09362047910690308,0.5328962206840515,2.2895286083221436,0.9967937469482422,,,,,,,
4633848000.0,91.91,0.14000000059604645,12041169408.0,1779.7768553071837,105.0,0.0024520691949874163,434176.0,962.82927942276,9.820269597504705e-15,0.0,2.4793906211853027,-0.024793904274702072,0.052840471267700195,-0.02479390613734722,9.313225746154785e-10,0.0,0.0452173575758934,0.3219652771949768,0.49758054503085547,0.14448371529579163,0.4155416488647461,0.18970108032226562,0.4542299509048462,2.3014121055603027,0.9967746734619141,,,,,,,
4633848000.0,91.74,0.07000000029802322,12041169408.0,1760.4785324506418,106.0,-0.000682242913171649,438272.0,965.1559195518494,1.005619199023755e-14,0.0,2.4712576866149902,-0.024712560698390007,0.07936982065439224,-0.0247125755995512,1.4901161193847656e-08,0.0,-0.07454642653465271,0.39143311977386475,0.5145835875704707,0.25544559955596924,0.3757748007774353,0.18089918792247772,0.5618240237236023,2.3266401290893555,0.9968068599700928,,,,,,,
4633848000.0,85.49,0.1899999976158142,12041169408.0,1771.0453106527846,107.0,0.0028730188496410847,442368.0,967.4686779975891,1.0217521273503394e-14,0.0,2.4428911209106445,-0.02442891150712967,0.05733421817421913,-0.02442891150712967,-4.656612873077393e-10,0.0,-0.016426583752036095,0.3382699191570282,0.4410853222088439,0.2610310912132263,0.36462685465812683,0.24460451304912567,0.4524708688259125,2.312758445739746,0.9967174530029297,,,,,,,
4633848000.0,82.59,0.5600000023841858,12041169408.0,1774.866417453413,108.0,0.004935248754918575,446464.0,969.7764573097229,9.690165336806444e-15,0.0,2.450495719909668,-0.024504953995347023,0.05084015801548958,-0.024504955857992172,1.862645149230957e-09,0.0,0.0233179721981287,0.31805863976478577,0.5567779134077776,0.28413712978363037,0.374463826417923,0.3074551224708557,0.47774532437324524,2.307779312133789,0.9973163604736328,,,,,,,
4633848000.0,79.57,0.4000000059604645,12041169408.0,1780.4021194200861,109.0,0.001649027573876083,450560.0,972.0770611763,9.423017921506016e-15,0.0,2.4494998455047607,-0.024494996294379234,0.05812296271324158,-0.024494998157024384,1.862645149230957e-09,0.0,-0.0461764931678772,0.33784836530685425,0.44969623140798354,0.2377168983221054,0.3239971399307251,0.1915404051542282,0.4554288983345032,2.3006038665771484,0.9969666004180908,,,,,,,
4633848000.0,78.66,0.4000000059604645,12041169408.0,1727.8051712858316,110.0,0.003167996648699045,454656.0,974.4476988315582,9.280770596475918e-15,0.0,2.509918212890625,-0.025099173188209534,0.038439687341451645,-0.02509918063879013,7.450580596923828e-09,0.0,-0.015910984948277473,0.2768481969833374,0.48598993747363994,0.27160727977752686,0.3129749000072479,0.25569629669189453,0.38614991307258606,2.3706376552581787,0.9968094825744629,,,,,,,
4633848000.0,81.01,0.5400000214576721,12041169408.0,1761.6938378392567,111.0,0.004416102543473244,458752.0,976.7727339267731,8.666678485980128e-15,0.0,2.5292298793792725,-0.02529229409992695,0.05039896070957184,-0.025292297825217247,3.725290298461914e-09,0.0,-0.0005811536684632301,0.31752511858940125,0.40493709797188127,0.2599075138568878,0.2861475646495819,0.25932636857032776,0.4116201400756836,2.3250350952148438,0.9967734813690186,,,,,,,
4633848000.0,83.07,0.5099999904632568,12041169408.0,1695.3924235710683,112.0,0.0037350067868828773,462848.0,979.1886937618256,8.800252193630342e-15,0.0,2.5000345706939697,-0.025000333786010742,0.03985261917114258,-0.025000344961881638,1.1175870895385742e-08,0.0,0.009469801560044289,0.2821967303752899,0.45008699674984676,0.2727106213569641,0.26747187972068787,0.28218042850494385,0.38054412603378296,2.4159598350524902,0.9970390796661377,,,,,,,
4633848000.0,80.82,0.5600000023841858,12041169408.0,1793.015658635607,113.0,0.004574784077703953,466944.0,981.4731132984161,9.289444213855802e-15,0.0,2.5168380737304688,-0.02516837976872921,0.04773582145571709,-0.02516837976872921,0.0,0.0,0.003068310674279928,0.30900734663009644,0.4348807144611123,0.21940025687217712,0.278965026140213,0.22246858477592468,0.411053866147995,2.284419536590576,0.9967520236968994,,,,,,,
4633848000.0,86.47,0.49000000953674316,12041169408.0,1781.5896696048947,114.0,0.002221731236204505,471040.0,983.7721836566925,9.797718192317006e-15,0.0,2.5082573890686035,-0.02508256398141384,0.04372343793511391,-0.025082573294639587,9.313225746154785e-09,0.0,-0.02032923698425293,0.29505059123039246,0.5211701572991205,0.17752636969089508,0.27227863669395447,0.15719711780548096,0.4263888895511627,2.299070358276367,0.9966950416564941,,,,,,,
4633848000.0,84.78,0.5199999809265137,12041169408.0,1764.4567089612283,115.0,0.0029223752208054066,475136.0,986.0935781002045,9.27383170257201e-15,0.0,2.5351691246032715,-0.025351691991090775,0.059300683438777924,-0.025351690128445625,-1.862645149230957e-09,0.0,-0.0032917018979787827,0.34441179037094116,0.3611688986332562,0.19670316576957703,0.2600644528865814,0.1934114694595337,0.4309084117412567,2.321394443511963,0.9968748092651367,,,,,,,
4633848000.0,81.16,0.38999998569488525,12041169408.0,1815.402889788355,116.0,0.0029274604748934507,479232.0,988.3498265743256,1.0108233694516855e-14,0.0,2.496866226196289,-0.02496865764260292,0.06993718445301056,-0.02496866136789322,3.725290298461914e-09,0.0,-0.01932213455438614,0.37354394793510437,0.5481499233080421,0.19157972931861877,0.29925113916397095,0.17225760221481323,0.5557053089141846,2.2562484741210938,0.9969592094421387,,,,,,,
4633848000.0,84.09,0.47999998927116394,12041169408.0,1772.6559834611382,117.0,0.004049289971590042,483328.0,990.6604835987091,1.0842021724855044e-14,0.0,2.455751657485962,-0.024557512253522873,0.04835422337055206,-0.02455751597881317,3.725290298461914e-09,0.0,0.01428292877972126,0.3106895685195923,0.5497642319679323,0.17914226651191711,0.2915320098400116,0.19342519342899323,0.46302738785743713,2.310657024383545,0.9967503547668457,,,,,,,
4633848000.0,79.75,0.5799999833106995,12041169408.0,1697.5279717785309,118.0,0.0048997290432453156,487424.0,993.0734040737152,1.0630385460785874e-14,0.0,2.44307279586792,-0.02443072944879532,0.02778274193406105,-0.02443072758615017,-1.862645149230957e-09,0.0,0.006512007676064968,0.23566213250160217,0.643613979549781,0.17524397373199463,0.297738641500473,0.18175597488880157,0.3947566747665405,2.4129204750061035,0.9968197345733643,,,,,,,
4633848000.0,79.53,0.46000000834465027,12041169408.0,1783.8172676072309,119.0,0.0025248643942177296,491520.0,995.369603395462,1.1745812655838961e-14,0.0,2.4095585346221924,-0.02409559302031994,0.04096321016550064,-0.024095585569739342,-7.450580596923828e-09,0.0,-0.006750437431037426,0.28618323802948,0.5130150308438222,0.1992032527923584,0.30069801211357117,0.1924528181552887,0.41009679436683655,2.296199321746826,0.9966905117034912,,,,,,,
4633848000.0,86.48,0.6000000238418579,12041169408.0,1801.2447748825302,120.0,0.004357918165624142,495616.0,997.643586397171,1.2446640940133591e-14,0.0,2.3674020767211914,-0.023674024268984795,0.04292542487382889,-0.023674020543694496,-3.725290298461914e-09,0.0,0.0020966646261513233,0.2930314540863037,0.5575239972139366,0.23136886954307556,0.31664618849754333,0.2334655225276947,0.44052374362945557,2.2739830017089844,0.9968001842498779,,,,,,,
4633848000.0,88.29,0.7900000214576721,12041169408.0,1802.863571930187,121.0,0.00633601937443018,499712.0,999.9155275821686,1.2188167142213047e-14,0.0,2.3986170291900635,-0.02398616634309292,0.027098435908555984,-0.023986170068383217,3.725290298461914e-09,0.0,0.045696694403886795,0.22830112278461456,0.6971355064430665,0.18444742262363434,0.3028942048549652,0.23014411330223083,0.4148431420326233,2.2719411849975586,0.9968464374542236,,,,,,,
4633848000.0,84.59,0.8899999856948853,12041169408.0,1788.2733947339632,122.0,0.007335275411605835,503808.0,1002.2060050964355,1.2745013378001602e-14,0.0,2.4305903911590576,-0.024305883795022964,0.03950415551662445,-0.024305904284119606,2.0489096641540527e-08,0.0,0.037985529750585556,0.27853965759277344,0.5457527562355082,0.24465212225914001,0.3050857484340668,0.28263765573501587,0.41327670216560364,2.2904775142669678,0.9969866275787354,,,,,,,
4633848000.0,82.84,0.6100000143051147,12041169408.0,1684.0907192661152,123.0,0.001130240852944553,507904.0,1004.6381781101227,1.1601830607332886e-14,0.0,2.4472274780273438,-0.024472273886203766,0.05987125635147095,-0.024472273886203766,0.0,0.0,-0.03559030219912529,0.34424522519111633,0.5857071861595012,0.2392558604478836,0.37802615761756897,0.20366555452346802,0.5348281264305115,2.432173013687134,0.9971189498901367,,,,,,,
4633848000.0,86.11,0.6100000143051147,12041169408.0,1798.5999900961085,124.0,0.00523885153234005,512000.0,1006.9155049324036,1.2021633688519273e-14,0.0,2.452864170074463,-0.024528643116354942,0.03753143548965454,-0.024528641253709793,-2.3283064365386963e-09,0.0,-0.0221701692789793,0.27311092615127563,0.6477573445978051,0.25885009765625,0.34507638216018677,0.23667991161346436,0.46016979217529297,2.277326822280884,0.9968512058258057,,,,,,,
4633848000.0,86.19,0.8199999928474426,12041169408.0,1753.3745761199996,125.0,0.006101276725530624,516096.0,1009.2515716552734,1.1445705494494973e-14,0.0,2.4534599781036377,-0.024534596130251884,0.03959861025214195,-0.024534599855542183,3.725290298461914e-09,0.0,0.020908381789922714,0.2806764841079712,0.476277968923427,0.29871898889541626,0.34594371914863586,0.3196273744106293,0.38784271478652954,2.336066722869873,0.9968719482421875,,,,,,,
4633848000.0,83.34,0.8899999856948853,12041169408.0,1805.1041319757614,126.0,0.005827104672789574,520192.0,1011.5206928253174,1.1504686092678185e-14,0.0,2.455885171890259,-0.024558844044804573,0.05019111931324005,-0.02455885149538517,7.450580596923828e-09,0.0,-0.02527794800698757,0.3158601224422455,0.6578938860788954,0.33182311058044434,0.37504062056541443,0.3065451681613922,0.5400256514549255,2.2691211700439453,0.9969508647918701,,,,,,,
4633848000.0,84.9,0.7599999904632568,12041169408.0,1802.7498738957418,127.0,0.004552636761218309,524288.0,1013.792777299881,1.1983469772047783e-14,0.0,2.4814348220825195,-0.024814339354634285,0.07797247171401978,-0.024814346805214882,7.450580596923828e-09,0.0,-0.029583707451820374,0.393837034702301,0.6058853371542583,0.38879069685935974,0.4103701114654541,0.3592069745063782,0.6273432970046997,2.2720844745635986,0.9971256256103516,,,,,,,
,,,,,,,,,,,,,,,,,,,,,,,,,,0.00694463262334466,0.06635438650846481,0.056508276611566544,0.00694463262334466,0.06635438650846481,0.056508276611566544,
,,,,,,,,,,,,,,,,,,,,,,,,,,0.005296861752867699,0.05349740386009216,0.04989994689822197,0.005296861752867699,0.05349740386009216,0.04989994689822197,
,,,,,,,,,,,,,,,,,,,,,,,,,,0.00442303903400898,0.04796333238482475,0.04626283049583435,0.00442303903400898,0.04796333238482475,0.04626283049583435,
,,,,,,,,,,,,,,,,,,,,,,,,,,0.004243023693561554,0.04473107308149338,0.04217526316642761,0.004243023693561554,0.04473107308149338,0.04217526316642761,
,,,,,,,,,,,,,,,,,,,,,,,,,,0.004171803593635559,0.042451947927474976,0.03998102247714996,0.004171803593635559,0.042451947927474976,0.03998102247714996,
,,,,,,,,,,,,,,,,,,,,,,,,,,0.003915872890502214,0.03900134190917015,0.03736927732825279,0.003915872890502214,0.03900134190917015,0.03736927732825279,
,,,,,,,,,,,,,,,,,,,,,,,,,,,,,,,,0.6
4633860000.0,89.19,0.5899999737739563,11990521856.0,16.96515455737874,128.0,0.004417272284626961,528384.0,1255.2288329601288,1.0923553728225954e-14,0.0,2.480083465576172,-0.02480083517730236,0.046686019748449326,-0.02480083331465721,-1.862645149230957e-09,0.0,0.00642742682248354,0.3055380880832672,0.6884413639856068,0.2285633087158203,0.4430765211582184,0.23499074578285217,0.5473881959915161,241.4360556602478,0.9970836639404297,,,,,,,
4633860000.0,86.71,0.8299999833106995,12041169408.0,1806.9712159283938,129.0,0.0071391756646335125,532480.0,1257.4956095218658,1.1147333056626962e-14,0.0,2.498810052871704,-0.024988099932670593,0.029823267832398415,-0.024988099932670593,0.0,0.0,0.05217789486050606,0.23861663043498993,0.7147173810578348,0.26387327909469604,0.3863719701766968,0.316051185131073,0.4467484652996063,2.2667765617370605,0.9971649646759033,,,,,,,
4633860000.0,87.6,1.0,12041169408.0,1779.632498325755,130.0,0.0055798739194869995,536576.0,1259.7972083091736,1.0739673039772413e-14,0.0,2.4810948371887207,-0.02481094002723694,0.03207537904381752,-0.024810947477817535,8.381903171539307e-09,0.0,0.046379074454307556,0.24902786314487457,0.6386771915770382,0.26511794328689575,0.3889801800251007,0.3114970028400421,0.41428595781326294,2.3015987873077393,0.9968571662902832,,,,,,,
4633860000.0,91.31,0.9300000071525574,12041169408.0,1772.72164931646,131.0,0.0053066061809659,540672.0,1262.1077797412872,1.144223604754302e-14,0.0,2.456514835357666,-0.024565143510699272,0.04080655425786972,-0.02456514723598957,3.725290298461914e-09,0.0,0.02030758000910282,0.28499215841293335,0.604123062739512,0.18536880612373352,0.4151953458786011,0.2056763917207718,0.45295268297195435,2.3105714321136475,0.996612548828125,,,,,,,
4633860000.0,92.4,0.9700000286102295,12041169408.0,1800.1717808665012,132.0,0.007329081185162067,544768.0,1264.3831181526184,1.1156006674006846e-14,0.0,2.497772455215454,-0.024977724999189377,0.0483115017414093,-0.024977723136544228,-1.3969838619232178e-09,0.0,0.032545171678066254,0.30917173624038696,0.7438041421080257,0.24933896958827972,0.5343406200408936,0.2818841338157654,0.6108206510543823,2.2753384113311768,0.9980523586273193,,,,,,,
4633860000.0,86.62,0.8500000238418579,12041169408.0,1783.4957888208637,133.0,0.005037026479840279,548864.0,1266.6797313690186,1.1232334506949826e-14,0.0,2.4861550331115723,-0.02486155368387699,0.046004824340343475,-0.024861549958586693,-3.259629011154175e-09,0.0,0.010233944281935692,0.3031952381134033,0.7303944784062182,0.3286357522010803,0.4776202440261841,0.33886969089508057,0.5839262008666992,2.2966132164001465,0.9967441558837891,,,,,,,
4633860000.0,86.78,0.8500000238418579,12041169408.0,1736.4290099863622,134.0,0.005620273295789957,552960.0,1269.0385954380035,1.124100812432971e-14,0.0,2.5019478797912598,-0.025019478052854538,0.058288220316171646,-0.025019478052854538,0.0,0.0,-0.013772539794445038,0.3411966860294342,0.6186024605325474,0.4180016815662384,0.46059754490852356,0.40422913432121277,0.5524791479110718,2.3588640689849854,0.9967775344848633,,,,,,,
4633860000.0,93.7,0.9200000166893005,12041169408.0,1797.714476818201,135.0,0.005916732829064131,557056.0,1271.317044019699,1.202336841199525e-14,0.0,2.4640681743621826,-0.02464068867266178,0.06256520748138428,-0.024640681222081184,-7.450580596923828e-09,0.0,-0.003953978419303894,0.35375887155532837,0.6110804497746694,0.43817710876464844,0.45862993597984314,0.4342231750488281,0.567253828048706,2.2784485816955566,0.9968647956848145,,,,,,,
4633860000.0,101.09,0.8199999928474426,12041169408.0,1736.3452972275873,136.0,0.00490756519138813,561152.0,1273.6760218143463,1.1841222447017685e-14,0.0,2.463827610015869,-0.02463826909661293,0.06899231672286987,-0.024638274684548378,5.587935447692871e-09,0.0,-0.03385462239384651,0.36996203660964966,0.7366599663575071,0.4224092960357666,0.6142506003379822,0.3885546624660492,0.7209393382072449,2.358977794647217,0.9969995021820068,,,,,,,
4633860000.0,103.43,1.0800000429153442,12041169408.0,1772.9704554618277,137.0,0.007225649431347847,565248.0,1275.9862689971924,1.2842157892656303e-14,0.0,2.4981234073638916,-0.024981236085295677,0.05532459914684296,-0.024981234222650528,-1.862645149230957e-09,0.0,-0.005292336456477642,0.3326382339000702,0.7272175672845511,0.5220373868942261,0.5299142599105835,0.5167449712753296,0.6368893384933472,2.3102471828460693,0.9969933032989502,,,,,,,
4633860000.0,101.26,1.2599999904632568,12041169408.0,1780.3434476540842,138.0,0.012297211214900017,569344.0,1278.2869486808777,1.2932363513407097e-14,0.0,2.441840410232544,-0.02441839501261711,0.03825769200921059,-0.024418404325842857,9.313225746154785e-09,0.0,0.04530470073223114,0.2729121744632721,0.7442407977308401,0.5463176965713501,0.4872421622276306,0.5916223526000977,0.5396438837051392,2.3006796836853027,0.9969360828399658,,,,,,,
4633860000.0,99.22,1.7200000286102295,12041169408.0,1754.6761437603425,139.0,0.007089762017130852,573440.0,1280.6212825775146,1.3277573485126482e-14,0.0,2.4375996589660645,-0.024376001209020615,0.05593714490532875,-0.024375995621085167,-5.587935447692871e-09,0.0,-0.029502172023057938,0.3332131803035736,0.8099905242621417,0.49609047174453735,0.6098921298980713,0.4665883481502533,0.7644243240356445,2.334333896636963,0.9968571662902832,,,,,,,
4633860000.0,99.84,1.7200000286102295,12041169408.0,1775.3808995049253,140.0,0.01272066030651331,577536.0,1282.928393125534,1.358808898732633e-14,0.0,2.4300930500030518,-0.02430092915892601,0.1908479630947113,-0.02430092915892601,9.313225746154785e-10,0.0,0.05700535699725151,0.6152550578117371,0.4254891100002236,0.5338903069496155,0.5519024133682251,0.5908956527709961,0.8117194771766663,2.307110548019409,0.9968481063842773,,,,,,,
4633860000.0,94.26,1.440000057220459,12041169408.0,1731.3536612059745,141.0,0.009411468170583248,581632.0,1285.2941720485687,1.3440637491868301e-14,0.0,2.422215461730957,-0.024222150444984436,0.05714954435825348,-0.024222154170274734,3.725290298461914e-09,0.0,-0.0015514912083745003,0.33811917901039124,0.6867411967379694,0.6131042242050171,0.5443889498710632,0.6115527153015137,0.604112982749939,2.365778923034668,0.9966466426849365,,,,,,,
4633860000.0,93.47,1.399999976158142,12041169408.0,1777.162704415352,142.0,0.007973290048539639,585728.0,1287.5989694595337,1.2363374213286704e-14,0.0,2.4246597290039062,-0.024246597662568092,0.07200632244348526,-0.024246597662568092,0.0,0.0,-0.04541666805744171,0.3768084943294525,0.524083356151233,0.6071953773498535,0.4682915210723877,0.5617787837982178,0.5462045073509216,2.304797410964966,0.9967238903045654,,,,,,,
4633860000.0,95.69,1.4299999475479126,12041169408.0,1809.1008346568233,143.0,0.008130904287099838,589824.0,1289.8630776405334,1.3471862514435884e-14,0.0,2.36714506149292,-0.02367144636809826,0.07374848425388336,-0.023671450093388557,3.725290298461914e-09,0.0,-0.041299376636743546,0.38187292218208313,0.5471397650287744,0.6012683510780334,0.5184656381607056,0.5599689483642578,0.5674619674682617,2.264108180999756,0.9968948364257812,,,,,,,
4633860000.0,92.86,1.0299999713897705,12041169408.0,1770.4851675393604,144.0,0.004652863368391991,593920.0,1292.1765677928925,1.3704315460216776e-14,0.0,2.3799216747283936,-0.02379922941327095,0.0688479095697403,-0.023799216374754906,-1.30385160446167e-08,0.0,-0.07147493958473206,0.3641696274280548,0.6305188539711596,0.5261949300765991,0.5009416937828064,0.45472002029418945,0.5991113781929016,2.313490152359009,0.9970622062683105,,,,,,,
4633860000.0,91.71,1.100000023841858,12041169408.0,1787.445439477188,145.0,0.010478636249899864,598016.0,1294.4681062698364,1.4146669946590862e-14,0.0,2.379937171936035,-0.023799382150173187,0.047372762113809586,-0.023799370974302292,-1.1175870895385742e-08,0.0,0.00989748165011406,0.3076860010623932,0.6574112058406774,0.5130559206008911,0.4525294601917267,0.5229533910751343,0.5256796479225159,2.2915384769439697,0.9968976974487305,,,,,,,
4633860000.0,94.81,1.5199999809265137,12041169408.0,1733.416404499733,146.0,0.011364676058292389,602112.0,1296.831069946289,1.5893536486899507e-14,0.0,2.3531155586242676,-0.023531151935458183,0.04113827645778656,-0.023531155660748482,3.725290298461914e-09,0.0,0.06734362244606018,0.27885544300079346,0.6593118523593111,0.41105157136917114,0.37378329038619995,0.47839516401290894,0.47774988412857056,2.3629636764526367,0.9967479705810547,,,,,,,
4633860000.0,93.63,1.850000023841858,12041169408.0,1739.213321301152,147.0,0.011226591654121876,606208.0,1299.1861577033997,1.6828552440451006e-14,0.0,2.3422751426696777,-0.02342274785041809,0.05573692172765732,-0.02342275157570839,3.725290298461914e-09,0.0,0.054906897246837616,0.32937148213386536,0.6501308610550045,0.338088721036911,0.4087611436843872,0.39299559593200684,0.5568434596061707,2.3550877571105957,0.9967186450958252,,,,,,,
4633860000.0,108.01,1.909999966621399,12041169408.0,1821.1443662236843,148.0,0.009628113359212875,610304.0,1301.4352929592133,1.591955733903916e-14,0.0,2.3104007244110107,-0.02310401387512684,0.05502039194107056,-0.023104006424546242,-7.916241884231567e-09,0.0,0.09330545365810394,0.3183702826499939,0.5133174491877807,0.3562554717063904,0.3104950189590454,0.44956091046333313,0.45636215806007385,2.2491352558135986,0.9967784881591797,,,,,,,
4633860000.0,111.22,2.140000104904175,12041169408.0,1715.2923656228431,149.0,0.013419607654213905,614400.0,1303.823224067688,1.950523076388322e-14,0.0,2.2642178535461426,-0.02264217846095562,0.04334032163023949,-0.02264217846095562,0.0,0.0,0.100731760263443,0.2766810953617096,0.7025933419827525,0.4182860255241394,0.39603444933891296,0.5190178155899048,0.507345974445343,2.3879311084747314,0.9967405796051025,,,,,,,
4633860000.0,113.47,2.259999990463257,12041169408.0,1777.258305150954,150.0,0.012258396483957767,618496.0,1306.1278975009918,1.9225940284250953e-14,0.0,2.2300760746002197,-0.022300787270069122,0.0450785830616951,-0.022300759330391884,-2.7939677238464355e-08,0.0,0.08426046371459961,0.28823187947273254,0.7205281282723828,0.41391897201538086,0.4439631998538971,0.49817949533462524,0.5452215075492859,2.304673433303833,0.9969737529754639,,,,,,,
4633860000.0,105.38,2.109999895095825,12041169408.0,1777.3325866686419,151.0,0.011102346703410149,622592.0,1308.4324746131897,2.2657223319733077e-14,0.0,2.237912654876709,-0.022379133850336075,0.0425819493830204,-0.022379126399755478,-7.450580596923828e-09,0.0,0.07382850348949432,0.28236982226371765,0.6848487829504194,0.5186205506324768,0.4505467116832733,0.5924490094184875,0.5029892921447754,2.304577112197876,0.9967858791351318,,,,,,,
4633860000.0,101.8,1.9299999475479126,12041169408.0,1819.262342168789,152.0,0.010529663413763046,626688.0,1310.6839365959167,2.1115054149589696e-14,0.0,2.230783700942993,-0.022307831794023514,0.05236941576004028,-0.02230783738195896,4.6566128730773926e-09,0.0,-0.012838979251682758,0.323418527841568,0.6530036888514286,0.5127166509628296,0.5165373086929321,0.4998776912689209,0.5490380525588989,2.251461982727051,0.9967668056488037,,,,,,,
4633860000.0,99.02,1.9199999570846558,12041169408.0,1781.1755458287103,153.0,0.011420156806707382,630784.0,1312.9835414886475,2.1198320876436583e-14,0.0,2.1758382320404053,-0.02175837755203247,0.053582482039928436,-0.02175838127732277,3.725290298461914e-09,0.0,-0.010629125870764256,0.32722795009613037,0.7469645961672853,0.7772154808044434,0.6092891693115234,0.7665863037109375,0.6505185961723328,2.299604892730713,0.9968752861022949,,,,,,,
4633860000.0,104.95,1.7999999523162842,12041169408.0,1717.1377937609852,154.0,0.009819439612329006,634880.0,1315.3689062595367,2.1486284973448733e-14,0.0,2.1716902256011963,-0.021716905757784843,0.07714790105819702,-0.021716902032494545,-3.725290298461914e-09,0.0,-0.00199221633374691,0.3928479850292206,0.6775091398015038,0.8406848907470703,0.6242828965187073,0.8386926651000977,0.6917764544487,2.3853647708892822,0.9971084594726562,,,,,,,
4633860000.0,113.21,2.2899999618530273,12041169408.0,1797.1281280518983,155.0,0.012700537219643593,638976.0,1317.648098230362,2.2299870283681855e-14,0.0,2.169069766998291,-0.02169068716466427,0.1828775405883789,-0.021690696477890015,9.313225746154785e-09,0.0,0.009262409061193466,0.6047797203063965,0.595549766535093,0.906347393989563,0.7347894906997681,0.9156098365783691,0.9509653449058533,2.2791919708251953,0.9970190525054932,,,,,,,
4633860000.0,115.56,2.2799999713897705,12041169408.0,1774.5054493122293,156.0,0.01275378093123436,643072.0,1319.956346988678,2.2452525949567814e-14,0.0,2.175344944000244,-0.021753447130322456,0.09559353440999985,-0.021753448992967606,1.862645149230957e-09,0.0,-0.024465303868055344,0.43661773204803467,0.6902664380574466,1.044651985168457,0.6787887215614319,1.0201866626739502,0.7845259308815002,2.30824875831604,0.9966235160827637,,,,,,,
4633860000.0,110.45,1.9700000286102295,12041169408.0,1773.8106920712432,157.0,0.009961338713765144,647168.0,1322.265499830246,2.2697121959680544e-14,0.0,2.172041416168213,-0.02172040566802025,0.1371234655380249,-0.021720413118600845,7.450580596923828e-09,0.0,-0.07279640436172485,0.5186648964881897,0.6568151458795242,1.0815532207489014,0.7387849688529968,1.0087568759918213,0.8853660225868225,2.309152841567993,0.9966964721679688,,,,,,,
4633860000.0,107.26,1.8200000524520874,12041169408.0,1812.8020872496259,158.0,0.008926032111048698,651264.0,1324.5249853134155,2.216629657603164e-14,0.0,2.196089267730713,-0.021960871294140816,0.11092455685138702,-0.021960891783237457,2.0489096641540527e-08,0.0,-0.0751970112323761,0.4650239944458008,0.7584113644850498,0.9781736135482788,0.7551825642585754,0.9029766321182251,0.9461002349853516,2.2594854831695557,0.9966394901275635,,,,,,,
4633860000.0,108.76,1.8300000429153442,12041169408.0,1803.2634261489252,159.0,0.010105198249220848,655360.0,1326.7964227199554,1.9508700210835173e-14,0.0,2.2063567638397217,-0.022063588723540306,0.0781288892030716,-0.022063566371798515,-2.2351741790771484e-08,0.0,-0.06380289793014526,0.39015910029411316,0.6565597446141209,0.8850996494293213,0.5305891036987305,0.821296751499176,0.6657576560974121,2.271437406539917,0.9967036247253418,,,,,,,
,,,,,,,,,,,,,,,,,,,,,,,,,,0.03260761499404907,0.11754497140645981,0.10250930488109589,0.03260761499404907,0.11754497140645981,0.10250930488109589,
,,,,,,,,,,,,,,,,,,,,,,,,,,0.019915439188480377,0.08958781510591507,0.08095457404851913,0.019915439188480377,0.08958781510591507,0.08095457404851913,
,,,,,,,,,,,,,,,,,,,,,,,,,,0.014750621281564236,0.07965004444122314,0.07469538599252701,0.014750621281564236,0.07965004444122314,0.07469538599252701,
,,,,,,,,,,,,,,,,,,,,,,,,,,0.012028378434479237,0.06878528743982315,0.06433819979429245,0.012028378434479237,0.06878528743982315,0.06433819979429245,
,,,,,,,,,,,,,,,,,,,,,,,,,,0.010551034472882748,0.0638309195637703,0.0613577738404274,0.010551034472882748,0.0638309195637703,0.0613577738404274,
,,,,,,,,,,,,,,,,,,,,,,,,,,0.010025287978351116,0.05925951153039932,0.05747731775045395,0.010025287978351116,0.05925951153039932,0.05747731775045395,
,,,,,,,,,,,,,,,,,,,,,,,,,,,,,,,,2.17
4633860000.0,107.87,1.9199999570846558,11990521856.0,16.977706012153973,160.0,0.01215690840035677,659456.0,1568.0539870262146,1.6377524336697036e-14,0.0,2.126434564590454,-0.021264340728521347,0.08253960311412811,-0.021264344453811646,3.725290298461914e-09,0.0,0.06530653685331345,0.40106549859046936,0.5616677718811003,0.48558416962623596,0.4548594653606415,0.5508907437324524,0.605778157711029,241.25756430625916,0.9968545436859131,,,,,,,
4633860000.0,115.01,2.5299999713897705,12041169408.0,1758.2508631665132,161.0,0.016778577119112015,663552.0,1570.383574962616,1.513025815746971e-14,0.0,2.137638568878174,-0.021376382559537888,0.13540415465831757,-0.021376384422183037,9.313225746154785e-10,0.0,0.1756126582622528,0.4899255931377411,0.7453253912892484,0.4902273118495941,0.6541759371757507,0.6658399701118469,0.9708167910575867,2.329587936401367,0.996535062789917,,,,,,,
4633860000.0,115.86,2.759999990463257,12041169408.0,1748.427566867432,162.0,0.014188230037689209,667648.0,1572.7262513637543,1.6224868670811077e-14,0.0,2.1017074584960938,-0.021017078310251236,0.06650419533252716,-0.021017074584960938,-3.725290298461914e-09,0.0,0.11612801253795624,0.3457627296447754,0.6890321925874483,0.46412983536720276,0.5090616345405579,0.5802578330039978,0.620041012763977,2.3426764011383057,0.9969325065612793,,,,,,,
4633860000.0,124.96,3.0,12041169408.0,1765.4320212552236,163.0,0.010670900344848633,671744.0,1575.0463633537292,1.6263032587282567e-14,0.0,2.0901312828063965,-0.02090131863951683,0.07640060782432556,-0.020901313051581383,-5.587935447692871e-09,0.0,0.0640769898891449,0.3856574296951294,0.6952570511612305,0.4619326889514923,0.5699087381362915,0.5260096788406372,0.6986100673675537,2.3201119899749756,0.9970688819885254,,,,,,,
4633860000.0,124.02,3.0399999618530273,12041169408.0,1788.4865544970994,164.0,0.01664327085018158,675840.0,1577.3365678787231,1.5839760059144226e-14,0.0,2.059058666229248,-0.02059057168662548,0.12834396958351135,-0.020590586587786674,1.4901161193847656e-08,0.0,0.13518670201301575,0.48833462595939636,0.6883849189134597,0.6464079022407532,0.7450805306434631,0.7815946340560913,0.8747990131378174,2.2902045249938965,0.996854305267334,,,,,,,
4633860000.0,132.82,3.0999999046325684,12041169408.0,1775.425483646946,165.0,0.013565747998654842,679936.0,1579.6436204910278,1.632548263241773e-14,0.0,2.039907932281494,-0.0203990638256073,0.12705843150615692,-0.020399078726768494,1.4901161193847656e-08,0.0,0.11452274769544601,0.490978866815567,0.6073498116866101,0.5764589905738831,0.7361847758293152,0.6909817457199097,0.7835378646850586,2.3070526123046875,0.9966075420379639,,,,,,,
4633860000.0,137.7,3.3299999237060547,12041169408.0,1743.7439344298568,166.0,0.016746487468481064,684032.0,1581.9925892353058,1.6616916176381835e-14,0.0,2.0611467361450195,-0.020611468702554703,0.07951386272907257,-0.020611466839909554,-1.862645149230957e-09,0.0,0.12393324077129364,0.37908226251602173,0.7303793575343571,0.8193812370300293,0.6545619368553162,0.9433144927024841,0.7300571203231812,2.348968744277954,0.9968094825744629,,,,,,,
4633860000.0,140.88,3.9200000762939453,12041169408.0,1741.1600170671466,167.0,0.019316980615258217,688128.0,1584.3450438976288,1.5664552988070568e-14,0.0,2.057138442993164,-0.020571371540427208,0.10750286281108856,-0.020571384578943253,1.30385160446167e-08,0.0,0.10904652625322342,0.4507374167442322,0.8173716247120821,1.0416324138641357,0.9281916618347168,1.1506788730621338,1.0547255277633667,2.352454662322998,0.9968626499176025,,,,,,,
4633860000.0,138.11,4.139999866485596,12041169408.0,1807.5118982112651,168.0,0.01784839853644371,692224.0,1586.6111423969269,1.478331346227435e-14,0.0,2.0974860191345215,-0.020974867045879364,0.1538858264684677,-0.020974859595298767,-7.450580596923828e-09,0.0,0.06180877238512039,0.5513851046562195,0.7381805648559148,1.1886321306228638,0.9494035840034485,1.2504409551620483,1.0775915384292603,2.2660984992980957,0.9971294403076172,,,,,,,
4633860000.0,135.74,3.940000057220459,12041169408.0,1796.124626070247,169.0,0.013799777254462242,696320.0,1588.891607761383,1.5227402672124413e-14,0.0,2.069565534591675,-0.020695652812719345,0.17927859723567963,-0.020695654675364494,1.862645149230957e-09,0.0,-0.051593683660030365,0.5966424345970154,0.5228278281848746,1.3188436031341553,0.8341166377067566,1.2672499418258667,0.8637272119522095,2.2804653644561768,0.9967067241668701,,,,,,,
4633860000.0,124.87,3.2200000286102295,12041169408.0,1788.4292104555823,170.0,0.012492438778281212,700416.0,1591.1818857192993,1.5135462327897642e-14,0.0,2.0363805294036865,-0.02036379650235176,0.17172706127166748,-0.020363803952932358,7.450580596923828e-09,0.0,-0.09072019904851913,0.5790560245513916,0.5658710087276123,1.4334306716918945,0.8075572848320007,1.3427104949951172,0.8788429498672485,2.2902779579162598,0.9968204498291016,,,,,,,
4633860000.0,120.87,2.799999952316284,12041169408.0,1766.2545940703772,171.0,0.014364824630320072,704512.0,1593.5009171962738,1.583108644176434e-14,0.0,2.034212112426758,-0.020342137664556503,0.1574576050043106,-0.02034212090075016,-1.5832483768463135e-08,0.0,-0.06540440768003464,0.5574166178703308,0.7243552608506071,1.497621774673462,0.9953687191009521,1.4322174787521362,1.0617080926895142,2.3190314769744873,0.9970560073852539,,,,,,,
4633860000.0,112.58,2.569999933242798,12041169408.0,1799.476763477089,172.0,0.014649973250925541,708608.0,1595.7771344184875,1.573914609753757e-14,0.0,1.9733331203460693,-0.01973332278430462,0.12128764390945435,-0.019733330234885216,7.450580596923828e-09,0.0,-0.0705965980887413,0.48749300837516785,0.7298808141727213,1.4257969856262207,0.8800956010818481,1.3552005290985107,0.9379737377166748,2.276217222213745,0.9967858791351318,,,,,,,
4633860000.0,116.83,2.799999952316284,12041169408.0,1756.9736362973472,173.0,0.013341056182980537,712704.0,1598.1084158420563,1.4857906571741353e-14,0.0,2.0371217727661133,-0.0203712061047554,0.10937844961881638,-0.020371217280626297,1.1175870895385742e-08,0.0,0.0007906714454293251,0.4677709937095642,0.7049162161889355,1.2439641952514648,0.7554822564125061,1.2447549104690552,0.8611139059066772,2.3312814235687256,0.9968287944793701,,,,,,,
4633860000.0,118.44,2.5899999141693115,12041169408.0,1784.830053276232,174.0,0.009859875775873661,716800.0,1600.4033122062683,1.6807735758739284e-14,0.0,2.0241775512695312,-0.020241759717464447,0.13252189755439758,-0.02024177461862564,1.4901161193847656e-08,0.0,-0.059277914464473724,0.511462390422821,0.6603274308213363,1.123612642288208,0.7258861660957336,1.0643348693847656,0.8775736093521118,2.294896364212036,0.9970295429229736,,,,,,,
4633860000.0,124.56,2.5199999809265137,12041169408.0,1797.5427449607473,175.0,0.011158473789691925,720896.0,1602.6819784641266,1.6056600493641326e-14,0.0,2.023104667663574,-0.020231042057275772,0.08936724066734314,-0.02023104578256607,3.725290298461914e-09,0.0,-0.007728364318609238,0.42275094985961914,0.6461780535030122,0.9316431283950806,0.5855152606964111,0.9239147901535034,0.7107096910476685,2.2786662578582764,0.9966318607330322,,,,,,,
4633860000.0,135.08,2.7899999618530273,12041169408.0,1800.7276529621304,176.0,0.01506948471069336,724992.0,1604.9566144943237,1.5014031684579265e-14,0.0,2.0649805068969727,-0.02064979262650013,0.06504002213478088,-0.020649803802371025,1.1175870895385742e-08,0.0,0.05923377349972725,0.3558121621608734,0.6758910615154343,0.8335702419281006,0.5267849564552307,0.8928040266036987,0.6249932050704956,2.2746360301971436,0.9965770244598389,,,,,,,
4633860000.0,129.64,2.809999942779541,12041169408.0,1771.3024124951387,177.0,0.014347851276397705,729088.0,1607.269037246704,1.7449583444850703e-14,0.0,2.018073558807373,-0.020180718973279,0.08816135674715042,-0.020180735737085342,1.6298145055770874e-08,0.0,0.07056164741516113,0.4139874279499054,0.6394170401211252,0.8369649648666382,0.5380254983901978,0.9075266122817993,0.6894211769104004,2.312422752380371,0.9969453811645508,,,,,,,
4633860000.0,128.97,2.890000104904175,12041169408.0,1802.974256836793,178.0,0.013466037809848785,733184.0,1609.5408389568329,1.625609369337866e-14,0.0,2.0353832244873047,-0.020353825762867928,0.10124309360980988,-0.020353831350803375,5.587935447692871e-09,0.0,0.07873117923736572,0.44309765100479126,0.7117669042736354,0.8352313041687012,0.6076432466506958,0.9139625430107117,0.8253297805786133,2.271801710128784,0.9968094825744629,,,,,,,
4633860000.0,122.62,2.8399999141693115,12041169408.0,1784.0508568441976,179.0,0.015332430601119995,737280.0,1611.8367376327515,1.7531115448221612e-14,0.0,1.9974327087402344,-0.019974324852228165,0.08151280879974365,-0.019974326714873314,2.7939677238464355e-09,0.0,0.06801305711269379,0.39804336428642273,0.6651985639424915,0.8370893001556396,0.5421658158302307,0.9051023125648499,0.6879181265830994,2.295898675918579,0.9966955184936523,,,,,,,
4633860000.0,133.3,2.859999895095825,12041169408.0,1747.5607136001845,180.0,0.01041275542229414,741376.0,1614.1805760860443,1.7414888975331166e-14,0.0,2.047232151031494,-0.020472325384616852,0.08233199268579483,-0.020472321659326553,-4.6566128730773926e-09,0.0,0.06049778312444687,0.4013020396232605,0.6603787844250155,0.8425167798995972,0.5445405840873718,0.9030146598815918,0.6886110305786133,2.3438384532928467,0.9970102310180664,,,,,,,
4633860000.0,150.67,3.6500000953674316,12041169408.0,1796.445038663075,181.0,0.020197773352265358,745472.0,1616.4606347084045,1.6653345369377348e-14,0.0,2.0087623596191406,-0.020087620243430138,0.15520185232162476,-0.020087623968720436,3.725290298461914e-09,0.0,0.17520512640476227,0.5289377570152283,0.6652792747104106,0.9804967045783997,0.6345205307006836,1.1557018756866455,0.9142465591430664,2.2800586223602295,0.9969661235809326,,,,,,,
4633860000.0,156.65,4.059999942779541,12041169408.0,1768.9450966950026,182.0,0.01439826563000679,749568.0,1618.7761390209198,1.9090631853124762e-14,0.0,2.0004985332489014,-0.020004980266094208,0.13759265840053558,-0.020004983991384506,3.725290298461914e-09,0.0,0.0713793933391571,0.5197656154632568,0.7288441485030571,1.029988408088684,0.7027508616447449,1.101367712020874,0.9981549978256226,2.315504312515259,0.9967067241668701,,,,,,,
4633860000.0,158.49,4.300000190734863,12041169408.0,1820.065665248601,183.0,0.015549007803201675,753664.0,1621.0266072750092,1.8448784167013343e-14,0.0,2.006100654602051,-0.020061006769537926,0.1302313506603241,-0.020061006769537926,0.0,0.0,0.02845301292836666,0.5096239447593689,0.7660775815633275,1.297758936882019,0.7965843081474304,1.326211929321289,1.0536925792694092,2.2504682540893555,0.9967617988586426,,,,,,,
4633860000.0,154.55,4.429999828338623,12041169408.0,1782.8874075197948,184.0,0.015400423668324947,757760.0,1623.3240041732788,1.8774912180496983e-14,0.0,1.9918041229248047,-0.019918056204915047,0.15023186802864075,-0.019918041303753853,-1.4901161193847656e-08,0.0,0.011802027001976967,0.5480855703353882,0.7441563038798356,1.488024353981018,0.858491837978363,1.499826431274414,1.0835800170898438,2.2973968982696533,0.9965858459472656,,,,,,,
4633860000.0,141.43,3.75,12041169408.0,1803.933337960454,185.0,0.014970910735428333,761856.0,1625.5945980548859,1.9264104200722443e-14,0.0,1.9932845830917358,-0.01993284747004509,0.10416235029697418,-0.01993284560739994,-1.862645149230957e-09,0.0,-0.030171716585755348,0.4554832875728607,0.7495508576539466,1.6483724117279053,0.7683553695678711,1.6182007789611816,0.9101494550704956,2.2705938816070557,0.996917724609375,,,,,,,
4633860000.0,142.3,3.4100000858306885,12041169408.0,1780.3897574371479,186.0,0.012665627524256706,765952.0,1627.8952178955078,1.6660284263281255e-14,0.0,2.0419363975524902,-0.020419366657733917,0.1743197739124298,-0.02041936293244362,-3.725290298461914e-09,0.0,-0.09752926230430603,0.5824177861213684,0.6459746962909771,1.7238731384277344,0.8303399085998535,1.626343846321106,0.9788528680801392,2.3006198406219482,0.9967982769012451,,,,,,,
4633860000.0,149.01,3.8399999141693115,12041169408.0,1805.5370487883367,187.0,0.016239546239376068,770048.0,1630.1637949943542,1.549975425785277e-14,0.0,2.002389430999756,-0.0200238935649395,0.2423805147409439,-0.0200238935649395,0.0,0.0,0.053541067987680435,0.69427090883255,0.6669141177567544,1.90807044506073,1.0410232543945312,1.9616115093231201,1.2029588222503662,2.2685770988464355,0.9966113567352295,,,,,,,
4633860000.0,159.97,4.360000133514404,12041169408.0,1790.5412618159166,188.0,0.016661401838064194,774144.0,1632.4513714313507,1.5041787260194894e-14,0.0,2.0925872325897217,-0.020925866439938545,0.37071770429611206,-0.020925872027873993,5.587935447692871e-09,0.0,0.07861944288015366,0.857574462890625,0.734632528840643,2.065279006958008,1.4830056428909302,2.1438982486724854,1.6647460460662842,2.28757643699646,0.9967727661132812,,,,,,,
4633860000.0,163.71,4.699999809265137,12041169408.0,1720.090761410281,189.0,0.015799865126609802,778240.0,1634.8326411247253,1.5010562237627312e-14,0.0,2.0702638626098633,-0.020702628418803215,0.31196051836013794,-0.02070263773202896,9.313225746154785e-09,0.0,0.005792602896690369,0.7899619340896606,0.6445516306174355,2.165192127227783,1.2159061431884766,2.1709847450256348,1.325006127357483,2.381269693374634,0.9967825412750244,,,,,,,
4633860000.0,176.86,4.739999771118164,12041169408.0,1780.536451734865,190.0,0.00961573887616396,782336.0,1637.133071422577,1.3895135042574225e-14,0.0,2.086139678955078,-0.020861398428678513,0.3059236407279968,-0.020861396566033363,-1.862645149230957e-09,0.0,0.02068200148642063,0.7820286750793457,0.4809758853106071,2.328923225402832,1.0906994342803955,2.3496053218841553,1.0854977369308472,2.3004302978515625,0.9972238540649414,,,,,,,
4633860000.0,200.77,5.25,12041169408.0,1756.786065696732,191.0,0.01477838959544897,786432.0,1639.4646017551422,1.422993667343775e-14,0.0,2.1080503463745117,-0.021080510690808296,0.31996166706085205,-0.0210805032402277,-7.916241884231567e-09,0.0,-0.11825976520776749,0.7912589907646179,0.577558751093322,2.262260913848877,1.0910056829452515,2.1440012454986572,1.2174062728881836,2.3315303325653076,0.9965572357177734,,,,,,,
,,,,,,,,,,,,,,,,,,,,,,,,,,0.05501287430524826,0.3616321384906769,0.35747280716896057,0.05501287430524826,0.3616321384906769,0.35747280716896057,
,,,,,,,,,,,,,,,,,,,,,,,,,,0.02271614782512188,0.2552386224269867,0.24947862327098846,0.02271614782512188,0.2552386224269867,0.24947862327098846,
,,,,,,,,,,,,,,,,,,,,,,,,,,0.01970544271171093,0.22756552696228027,0.2184252291917801,0.01970544271171093,0.22756552696228027,0.2184252291917801,
,,,,,,,,,,,,,,,,,,,,,,,,,,0.01780220866203308,0.20925837755203247,0.2107207328081131,0.01780220866203308,0.20925837755203247,0.2107207328081131,
,,,,,,,,,,,,,,,,,,,,,,,,,,0.014965330250561237,0.18173982203006744,0.17876672744750977,0.014965330250561237,0.18173982203006744,0.17876672744750977,
,,,,,,,,,,,,,,,,,,,,,,,,,,0.016332125291228294,0.16789402067661285,0.17035254836082458,0.016332125291228294,0.16789402067661285,0.17035254836082458,
,,,,,,,,,,,,,,,,,,,,,,,,,,,,,,,,4.38
4633872000.0,183.47,4.150000095367432,11990521856.0,17.030069085945378,192.0,0.011328129097819328,790528.0,1879.9803612232208,1.5269036035547856e-14,0.0,2.085937023162842,-0.020859358832240105,0.11133867502212524,-0.020859370008111,1.1175870895385742e-08,0.0,-0.01853550225496292,0.4715804159641266,0.6794701152211025,1.3171082735061646,0.7149969339370728,1.2985727787017822,0.8329547643661499,240.5157594680786,0.9963910579681396,,,,,,,
4633872000.0,179.72,4.110000133514404,12041169408.0,1735.595050869587,193.0,0.01635025441646576,794624.0,1882.3403587341309,1.4589024432964948e-14,0.0,2.0911073684692383,-0.02091106027364731,0.19202037155628204,-0.020911073312163353,1.30385160446167e-08,0.0,0.07880035042762756,0.614754855632782,0.6336252276987038,1.2486817836761475,0.8249452114105225,1.327481985092163,1.0156384706497192,2.359997510910034,0.9962313175201416,,,,,,,
4633872000.0,175.34,3.7799999713897705,12041169408.0,1776.8371875204266,194.0,0.009461550042033195,798720.0,1884.6455783843994,1.3560333411710701e-14,0.0,2.1125569343566895,-0.02112557552754879,0.10858649015426636,-0.021125568076968193,-7.450580596923828e-09,0.0,-0.02013765275478363,0.46563977003097534,0.6554741464160507,1.1022660732269287,0.7068073153495789,1.0821284055709839,0.7933030724525452,2.3052196502685547,0.9961071014404297,,,,,,,
4633872000.0,164.52,3.6600000858306885,12041169408.0,1821.240316927911,195.0,0.013198541477322578,802816.0,1886.8945951461792,1.511464564618592e-14,0.0,2.101962089538574,-0.021019630134105682,0.20996150374412537,-0.021019620820879936,-1.0244548320770264e-08,0.0,0.08441737294197083,0.6425710320472717,0.7506117364922011,1.2977466583251953,0.9720540046691895,1.3821640014648438,1.286717414855957,2.249016761779785,0.9966344833374023,,,,,,,
4633872000.0,163.39,3.7100000381469727,12041169408.0,1781.2636372166662,196.0,0.01146725844591856,806912.0,1889.1940863132477,1.4731271757995046e-14,0.0,2.1319687366485596,-0.021319705992937088,0.12782052159309387,-0.021319687366485596,-1.862645149230957e-08,0.0,-0.016229858621954918,0.5054107308387756,0.7568851000954596,1.1452257633209229,0.7941986918449402,1.1289958953857422,1.0250349044799805,2.2994911670684814,0.9965641498565674,,,,,,,
4633872000.0,167.47,3.5399999618530273,12041169408.0,1797.2642442122,197.0,0.011463923379778862,811008.0,1891.4731056690216,1.4314938123760612e-14,0.0,2.105830430984497,-0.021058307960629463,0.16320760548114777,-0.021058304235339165,-3.725290298461914e-09,0.0,0.020046252757310867,0.571045458316803,0.6461897538992656,1.3842270374298096,0.867605447769165,1.404273271560669,0.9600317478179932,2.279019355773926,0.9962739944458008,,,,,,,
4633872000.0,158.33,3.75,12041169408.0,1745.121640272432,198.0,0.014763704501092434,815104.0,1893.8202199935913,1.5085155347094314e-14,0.0,2.0640575885772705,-0.020640572533011436,0.1635848581790924,-0.020640576258301735,3.259629011154175e-09,0.0,0.07761532068252563,0.5667662620544434,0.6545728449227476,1.3031542301177979,0.7658283710479736,1.3807694911956787,0.96433025598526,2.347114324569702,0.9962449073791504,,,,,,,
4633872000.0,157.39,3.640000104904175,12041169408.0,1820.3163670362142,199.0,0.015779104083776474,819200.0,1896.0703783035278,1.5131992880945688e-14,0.0,2.0977346897125244,-0.02097734622657299,0.2192797213792801,-0.02097734622657299,0.0,0.0,0.027807343751192093,0.6617348790168762,0.766317172432007,1.3002345561981201,1.0146909952163696,1.3280417919158936,1.3688966035842896,2.2501583099365234,0.9964694976806641,,,,,,,
4633872000.0,164.52,3.8299999237060547,12041169408.0,1803.7717789251917,200.0,0.011324575170874596,823296.0,1898.3411755561829,1.4852702401313422e-14,0.0,2.0839104652404785,-0.020839113742113113,0.11007152497768402,-0.020839104428887367,-8.381903171539307e-09,0.0,-0.007502296008169651,0.46919137239456177,0.6645864110550901,1.217614769935608,0.7091079354286194,1.2101125717163086,0.8101391792297363,2.2707972526550293,0.9966950416564941,,,,,,,
4633872000.0,158.07,3.740000009536743,12041169408.0,1805.4939754579163,201.0,0.011907230131328106,827392.0,1900.6098067760468,1.49515816394441e-14,0.0,2.0747179985046387,-0.020747171714901924,0.2205488383769989,-0.02074717916548252,7.450580596923828e-09,0.0,0.07590708136558533,0.6598803400993347,0.7365298959435378,1.4610545635223389,1.0576342344284058,1.5369616746902466,1.2855812311172485,2.2686312198638916,0.9964206218719482,,,,,,,
4633872000.0,165.79,3.6600000858306885,12041169408.0,1767.0679371824165,202.0,0.008462544530630112,831488.0,1902.9277708530426,1.6311604844609917e-14,0.0,2.0496082305908203,-0.020496083423495293,0.2681125998497009,-0.020496081560850143,-1.862645149230957e-09,0.0,-0.007384702563285828,0.7323261499404907,0.5846558580425641,1.472769856452942,1.0175940990447998,1.4653851985931396,1.136319637298584,2.3179640769958496,0.9965875148773193,,,,,,,
4633872000.0,164.18,3.1700000762939453,12041169408.0,1743.8614628551127,203.0,0.01419719960540533,835584.0,1905.276581287384,1.5338424974586928e-14,0.0,2.068659782409668,-0.02068660408258438,0.2206209897994995,-0.020686596632003784,-6.51925802230835e-09,0.0,-0.013858288526535034,0.6641970276832581,0.6980737528099629,1.6076819896697998,0.9643617272377014,1.5938236713409424,1.208777666091919,2.3488104343414307,0.9964597225189209,,,,,,,
4633872000.0,167.12,4.039999961853027,12041169408.0,1798.6131711623789,204.0,0.018512053415179253,839680.0,1907.5538914203644,1.5716594692349872e-14,0.0,2.044841766357422,-0.02044840343296528,0.272628515958786,-0.020448416471481323,1.30385160446167e-08,0.0,0.1380905658006668,0.7254767417907715,0.8477840473461009,1.80286705493927,1.5522563457489014,1.94095778465271,1.8594882488250732,2.2773101329803467,0.9964282512664795,,,,,,,
4633872000.0,180.12,4.269999980926514,12041169408.0,1716.1100088832843,205.0,0.014491740614175797,843776.0,1909.9406847953796,1.642956604097634e-14,0.0,2.0187556743621826,-0.020187558606266975,0.2826739549636841,-0.020187556743621826,-1.862645149230957e-09,0.0,0.03074919991195202,0.7513588666915894,0.7627240745100491,1.8370839357376099,1.2857756614685059,1.867833137512207,1.5424838066101074,2.386793375015259,0.9964747428894043,,,,,,,
4633872000.0,176.28,5.050000190734863,12041169408.0,1785.1008183367617,206.0,0.01693173311650753,847872.0,1912.2352330684662,1.675569405445998e-14,0.0,2.0013949871063232,-0.020013945177197456,0.2569248676300049,-0.020013948902487755,3.725290298461914e-09,0.0,0.1267845332622528,0.705618143081665,0.803567248531471,2.0423178672790527,1.4081809520721436,2.169102668762207,1.5920727252960205,2.294548273086548,0.9974253177642822,,,,,,,
4633872000.0,182.8,5.800000190734863,12041169408.0,1745.592947181796,207.0,0.02181093767285347,851968.0,1914.5817136764526,1.7850304567801345e-14,0.0,1.9827280044555664,-0.019827283918857574,0.46720656752586365,-0.019827280193567276,-3.725290298461914e-09,0.0,0.06956995278596878,0.9642613530158997,0.7596719429601277,2.3115363121032715,1.7899258136749268,2.381106376647949,1.9669464826583862,2.34648060798645,0.9964139461517334,,,,,,,
4633872000.0,197.19,6.010000228881836,12041169408.0,1779.1140756334285,208.0,0.012046188116073608,856064.0,1916.8839831352234,1.941155569618047e-14,0.0,1.9722990989685059,-0.019722986966371536,0.31463319063186646,-0.019722990691661835,2.7939677238464355e-09,0.0,0.04395555704832077,0.7921410799026489,0.6935517634539367,2.352263927459717,1.1851603984832764,2.3962197303771973,1.4309486150741577,2.302269458770752,0.9966557025909424,,,,,,,
4633872000.0,200.28,6.059999942779541,12041169408.0,1781.9309769277595,209.0,0.02150113321840763,860160.0,1919.1826131343842,1.9158286068687858e-14,0.0,1.9157609939575195,-0.01915759965777397,0.7545222043991089,-0.019157608970999718,9.313225746154785e-09,0.0,0.0352538526058197,1.2280757427215576,0.7350001578557286,3.4036450386047363,2.2897489070892334,3.438899040222168,2.3856263160705566,2.2986299991607666,0.9963538646697998,,,,,,,
4633872000.0,197.89,6.239999771118164,12041169408.0,1760.3562283168674,210.0,0.01662667840719223,864256.0,1921.5094149112701,2.0131465938710846e-14,0.0,1.9056342840194702,-0.01905633509159088,0.5739936828613281,-0.01905634254217148,7.450580596923828e-09,0.0,-0.07285584509372711,1.0690923929214478,0.7512376549100162,3.3541808128356934,2.1046435832977295,3.281324863433838,2.1434969902038574,2.3268017768859863,0.9965498447418213,,,,,,,
4633872000.0,210.15,7.199999809265137,12041169408.0,1778.4006098366385,211.0,0.024092186242341995,868352.0,1923.8126080036163,2.0523513444281605e-14,0.0,1.9008512496948242,-0.019008517265319824,0.5578964352607727,-0.019008511677384377,-5.587935447692871e-09,0.0,0.14596201479434967,1.046305537223816,0.8252086263088994,3.7945494651794434,2.358877420425415,3.940511703491211,2.502641201019287,2.3031930923461914,0.9962725639343262,,,,,,,
4633872000.0,201.43,7.239999771118164,12041169408.0,1755.8611955604786,212.0,0.02564975991845131,872448.0,1926.1453664302826,2.0899948438568572e-14,0.0,1.8736368417739868,-0.01873636804521084,0.564240574836731,-0.01873636804521084,0.0,0.0,0.05799740552902222,1.0608450174331665,0.8086561341757242,3.8820886611938477,2.306218385696411,3.9400858879089355,2.4251832962036133,2.3327584266662598,0.9964425563812256,,,,,,,
4633872000.0,196.78,7.059999942779541,12041169408.0,1780.4740806393008,213.0,0.01388024352490902,876544.0,1928.445877313614,1.9239818072058767e-14,0.0,1.9154047966003418,-0.019154058769345284,0.5312961935997009,-0.019154047593474388,-1.0710209608078003e-08,0.0,-0.2554897367954254,0.9987797737121582,0.7221196513308736,3.570049285888672,1.7024582624435425,3.3145594596862793,1.8947017192840576,2.300510883331299,0.9965026378631592,,,,,,,
4633872000.0,200.07,7.099999904632568,12041169408.0,1777.9211745711457,214.0,0.015309322625398636,880640.0,1930.7496914863586,2.0152282620422568e-14,0.0,1.9071452617645264,-0.019071443006396294,0.46775656938552856,-0.01907145231962204,9.313225746154785e-09,0.0,-0.13777080178260803,0.9574738144874573,0.6236183468222722,3.5935916900634766,1.5168535709381104,3.4558210372924805,1.5606755018234253,2.303814172744751,0.9965810775756836,,,,,,,
4633872000.0,208.31,7.53000020980835,12041169408.0,1773.8612414872339,215.0,0.01961672306060791,884736.0,1933.0587785243988,1.978799069046744e-14,0.0,1.8532557487487793,-0.01853255182504654,0.4018038213253021,-0.018532557412981987,5.587935447692871e-09,0.0,-0.02815152518451214,0.8961089253425598,0.7089505064387567,3.2228293418884277,1.483002781867981,3.1946780681610107,1.6610298156738281,2.309087038040161,0.9963831901550293,,,,,,,
4633872000.0,216.32,7.449999809265137,12041169408.0,1747.2610542817529,216.0,0.017456969246268272,888832.0,1935.403018951416,2.073861915530273e-14,0.0,1.861881971359253,-0.01861882209777832,0.4264152944087982,-0.018618818372488022,-3.725290298461914e-09,0.0,0.14516164362430573,0.9121193885803223,0.6674325241412762,3.054718017578125,1.4806591272354126,3.1998798847198486,1.581655502319336,2.344240427017212,0.9964110851287842,,,,,,,
4633872000.0,216.65,7.059999942779541,12041169408.0,1805.9371407151102,217.0,0.021471921354532242,892928.0,1937.6710934638977,1.8289189607223477e-14,0.0,1.9257251024246216,-0.019257251173257828,0.43548619747161865,-0.019257251173257828,0.0,0.0,0.08170264214277267,0.9297893047332764,0.6869820105238014,2.5188961029052734,1.457712173461914,2.6005988121032715,1.6618809700012207,2.2680745124816895,0.9966123104095459,,,,,,,
4633872000.0,219.7,6.980000019073486,12041169408.0,1781.7964341190273,218.0,0.015431242063641548,897024.0,1939.969897031784,1.693957474291352e-14,0.0,1.9682097434997559,-0.019682085141539574,0.30056053400039673,-0.01968209631741047,1.1175870895385742e-08,0.0,0.0792500227689743,0.7713532447814941,0.5935528277616039,2.2488789558410645,1.0258833169937134,2.328129291534424,1.2099052667617798,2.2988035678863525,0.9966957569122314,,,,,,,
4633872000.0,222.98,7.449999809265137,12041169408.0,1788.6250890415165,219.0,0.019169000908732414,901120.0,1942.259924173355,1.5893536486899507e-14,0.0,1.978593349456787,-0.019785935059189796,0.31074878573417664,-0.019785933196544647,-1.862645149230957e-09,0.0,0.05539271980524063,0.7864987254142761,0.6914364079386954,2.1617183685302734,1.0962566137313843,2.2171108722686768,1.4158775806427002,2.290027141571045,0.9961385726928711,,,,,,,
4633872000.0,224.36,7.380000114440918,12041169408.0,1763.1981398220614,220.0,0.01830979809165001,905216.0,1944.5829756259918,1.6221399223859123e-14,0.0,1.9674800634384155,-0.019674794748425484,0.31671443581581116,-0.01967480033636093,5.587935447692871e-09,0.0,0.1034606471657753,0.7892255187034607,0.6444463996418883,2.3433337211608887,1.09049654006958,2.4467945098876953,1.3235750198364258,2.3230514526367188,0.9966909885406494,,,,,,,
4633872000.0,204.79,6.670000076293945,12041169408.0,1760.9227945299049,221.0,0.016301846131682396,909312.0,1946.9090287685394,1.5884862869519623e-14,0.0,1.970182180404663,-0.019701803103089333,0.2846945822238922,-0.019701821729540825,1.862645149230957e-08,0.0,-0.01555563323199749,0.7545105814933777,0.6877305222821084,2.383967399597168,1.0994675159454346,2.3684115409851074,1.3502073287963867,2.3260531425476074,0.996809720993042,,,,,,,
4633872000.0,197.9,5.929999828338623,12041169408.0,1744.702500975944,222.0,0.011576322838664055,913408.0,1949.2567069530487,1.6072213004925118e-14,0.0,1.982611060142517,-0.01982610672712326,0.2141992747783661,-0.01982611045241356,3.725290298461914e-09,0.0,-0.09078545868396759,0.6482740044593811,0.6123540175999115,2.0486748218536377,0.868827760219574,1.9578893184661865,1.0412163734436035,2.3476781845092773,0.9965221881866455,,,,,,,
4633872000.0,186.88,4.840000152587891,12041169408.0,1736.9609588259268,223.0,0.009580100886523724,917504.0,1951.614848613739,1.488739687083296e-14,0.0,2.0253100395202637,-0.020253093913197517,0.2475961297750473,-0.020253099501132965,5.587935447692871e-09,0.0,-0.08700910955667496,0.6983844041824341,0.7081361018023145,2.0592546463012695,1.088663101196289,1.972245454788208,1.2927194833755493,2.3581416606903076,0.9964020252227783,,,,,,,
,,,,,,,,,,,,,,,,,,,,,,,,,,0.07007420063018799,0.8437210917472839,0.7962386012077332,0.07007420063018799,0.8437210917472839,0.7962386012077332,
,,,,,,,,,,,,,,,,,,,,,,,,,,0.037005774676799774,0.6187770962715149,0.6182795763015747,0.037005774676799774,0.6187770962715149,0.6182795763015747,
,,,,,,,,,,,,,,,,,,,,,,,,,,0.02395050972700119,0.515971302986145,0.5098234415054321,0.02395050972700119,0.515971302986145,0.5098234415054321,
,,,,,,,,,,,,,,,,,,,,,,,,,,0.022811660543084145,0.4595195949077606,0.4423147737979889,0.022811660543084145,0.4595195949077606,0.4423147737979889,
,,,,,,,,,,,,,,,,,,,,,,,,,,0.02237514965236187,0.39688682556152344,0.3751163184642792,0.02237514965236187,0.39688682556152344,0.3751163184642792,
,,,,,,,,,,,,,,,,,,,,,,,,,,0.023188605904579163,0.36091139912605286,0.33850252628326416,0.023188605904579163,0.36091139912605286,0.33850252628326416,
,,,,,,,,,,,,,,,,,,,,,,,,,,,,,,,,3.86
4633872000.0,179.47,3.950000047683716,11990521856.0,17.032525726341355,224.0,0.0028563125524669886,921600.0,2192.0959179401398,1.3312267954646018e-14,0.0,2.1052632331848145,-0.021052632480859756,0.4196116626262665,-0.021052632480859756,9.313225746154785e-10,0.0,-0.20230180025100708,0.8935839533805847,0.5705529413572418,2.3165574073791504,1.2623817920684814,2.114255905151367,1.3635797500610352,240.48106932640076,0.996260404586792,,,,,,,
4633872000.0,176.7,3.509999990463257,12041169408.0,1780.9870189108467,225.0,0.018468348309397697,925696.0,2194.3957662582397,1.4448511831410826e-14,0.0,2.0991551876068115,-0.020991547033190727,0.28068113327026367,-0.020991550758481026,3.725290298461914e-09,0.0,0.015563439577817917,0.7491708993911743,0.7866209852679312,2.189570665359497,1.3558940887451172,2.205134391784668,1.6218292713165283,2.2998483180999756,0.9965059757232666,,,,,,,
4633872000.0,170.16,3.109999895095825,12041169408.0,1747.7888150430622,226.0,0.008445517159998417,929792.0,2196.7392988204956,1.3888196148670318e-14,0.0,2.1371469497680664,-0.02137146145105362,0.25978681445121765,-0.021371468901634216,7.450580596923828e-09,0.0,-0.05054005980491638,0.7191283702850342,0.5369441538347072,1.87131929397583,1.0451892614364624,1.8207793235778809,1.0567926168441772,2.3435325622558594,0.9964799880981445,,,,,,,
4633872000.0,183.7,3.109999895095825,12041169408.0,1821.078731726666,227.0,0.011440681293606758,933888.0,2198.988515138626,1.408768934840765e-14,0.0,2.0265841484069824,-0.02026585303246975,0.32348334789276123,-0.020265841856598854,-1.0710209608078003e-08,0.0,-0.11064645648002625,0.7967930436134338,0.675862765229414,2.0549261569976807,1.2910327911376953,1.9442797899246216,1.3995262384414673,2.249216318130493,0.9961092472076416,,,,,,,
4633872000.0,187.35,3.559999942779541,12041169408.0,1797.3834567901752,228.0,0.010155119933187962,937984.0,2201.267383337021,1.4236875567341656e-14,0.0,2.0846872329711914,-0.020846860483288765,0.196764275431633,-0.02084687165915966,1.1175870895385742e-08,0.0,0.01964631862938404,0.6270873546600342,0.7750451188291403,1.7090849876403809,1.1460225582122803,1.7287311553955078,1.3221487998962402,2.2788681983947754,0.9966411590576172,,,,,,,
4633872000.0,189.34,3.759999990463257,12041169408.0,1806.487081836591,229.0,0.009870829060673714,942080.0,2203.5347673892975,1.473994537537493e-14,0.0,2.0830130577087402,-0.020830130204558372,0.14204373955726624,-0.020830130204558372,0.0,0.0,0.006781663745641708,0.5330204963684082,0.8006419719276431,1.6035101413726807,1.0081472396850586,1.6102917194366455,1.1937874555587769,2.2673840522766113,0.9966812133789062,,,,,,,
4633872000.0,197.04,4.510000228881836,12041169408.0,1824.5594349982478,230.0,0.022217795252799988,946176.0,2205.77969288826,1.5622919624647125e-14,0.0,2.0617294311523438,-0.020617280155420303,0.4471130967140198,-0.020617293193936348,1.30385160446167e-08,0.0,0.1547759771347046,0.9329968094825745,0.8097760141316759,1.8975163698196411,1.6909743547439575,2.0522923469543457,2.139180898666382,2.2449254989624023,0.9964463710784912,,,,,,,
4633872000.0,192.8,4.550000190734863,12041169408.0,1794.1910569025029,231.0,0.012576200067996979,950272.0,2208.0626158714294,1.4942908022064216e-14,0.0,2.0442540645599365,-0.0204425361007452,0.19531190395355225,-0.0204425398260355,3.725290298461914e-09,0.0,0.06888226419687271,0.6212674975395203,0.7733800508121547,1.598423957824707,1.1511965990066528,1.6673061847686768,1.305057168006897,2.2829229831695557,0.9962053298950195,,,,,,,
4633872000.0,191.27,5.079999923706055,12041169408.0,1786.368942897211,232.0,0.014461742714047432,954368.0,2210.3555352687836,1.5404344466674047e-14,0.0,2.01632022857666,-0.020163195207715034,0.22419680655002594,-0.02016320265829563,7.450580596923828e-09,0.0,0.0454900898039341,0.6681565642356873,0.8176612926332922,1.5968904495239258,1.2637226581573486,1.6423805952072144,1.5647279024124146,2.292919397354126,0.9964799880981445,,,,,,,
4633872000.0,186.79,5.039999961853027,12041169408.0,1750.0303236317623,233.0,0.014297056943178177,958464.0,2212.6960661411285,1.597853793722237e-14,0.0,2.0419771671295166,-0.02041976898908615,0.22519120573997498,-0.0204197708517313,1.862645149230957e-09,0.0,0.08103390038013458,0.6662764549255371,0.7831047313640521,1.4930577278137207,1.1731276512145996,1.5740916728973389,1.4306367635726929,2.3405308723449707,0.9964499473571777,,,,,,,
4633872000.0,200.59,5.300000190734863,12041169408.0,1810.3342404041018,234.0,0.00857782643288374,962560.0,2214.9586317539215,1.6145071390916144e-14,0.0,2.0179452896118164,-0.02017945609986782,0.3465763032436371,-0.020179452374577522,-3.725290298461914e-09,0.0,0.04059574753046036,0.8316690921783447,0.504695446382063,1.490143895149231,1.179670810699463,1.530739665031433,1.1817196607589722,2.2625656127929688,0.9967315196990967,,,,,,,
4633872000.0,196.97,4.329999923706055,12041169408.0,1768.845835160022,235.0,0.012582320719957352,966656.0,2217.2742660045624,1.7819079545233762e-14,0.0,2.0107688903808594,-0.020107682794332504,0.2041555792093277,-0.020107688382267952,4.6566128730773926e-09,0.0,0.017380116507411003,0.6388338804244995,0.7582920112301796,1.5196185111999512,1.1598079204559326,1.5369987487792969,1.2993991374969482,2.315634250640869,0.9963459968566895,,,,,,,
4633872000.0,201.61,4.599999904632568,12041169408.0,1725.498877764347,236.0,0.011302837170660496,970752.0,2219.648072242737,1.8375925781022318e-14,0.0,2.0367605686187744,-0.020367611199617386,0.25256508588790894,-0.020367605611681938,-5.587935447692871e-09,0.0,0.04732254147529602,0.7092344760894775,0.7800596016794424,1.6811788082122803,1.4273416996002197,1.728501319885254,1.5122977495193481,2.3738062381744385,0.9965579509735107,,,,,,,
4633872000.0,204.79,4.150000095367432,12041169408.0,1741.631834677127,237.0,0.011734550818800926,974848.0,2221.999889612198,1.8365517440166457e-14,0.0,1.9976186752319336,-0.01997620053589344,0.23529741168022156,-0.019976185634732246,-1.4901161193847656e-08,0.0,0.0024490617215633392,0.6860784888267517,0.6709336704573619,1.4572882652282715,1.1294265985488892,1.4597373008728027,1.19600248336792,2.3518173694610596,0.9968912601470947,,,,,,,
4633872000.0,213.56,4.679999828338623,12041169408.0,1785.1867014008315,238.0,0.015333563089370728,978944.0,2224.2943274974823,1.9753296220947902e-14,0.0,1.968656063079834,-0.019686568528413773,0.26538971066474915,-0.019686561077833176,-7.450580596923828e-09,0.0,0.08201535791158676,0.7240033149719238,0.8343345433685478,1.7166390419006348,1.4998220205307007,1.798654556274414,1.7787898778915405,2.294437885284424,0.9964184761047363,,,,,,,
4633872000.0,203.71,4.570000171661377,12041169408.0,1779.3624680090356,239.0,0.014608308672904968,983040.0,2226.5962755680084,2.048881897476207e-14,0.0,1.9703911542892456,-0.01970391534268856,0.23338060081005096,-0.019703911617398262,-3.725290298461914e-09,0.0,0.12542083859443665,0.6716702580451965,0.858283485115126,2.0205607414245605,1.5986912250518799,2.145981788635254,1.784209966659546,2.301948070526123,0.9966309070587158,,,,,,,
4633872000.0,211.04,5.820000171661377,12041169408.0,1795.1603220989366,240.0,0.022914540022611618,987136.0,2228.877965927124,1.836378271669048e-14,0.0,1.9661576747894287,-0.019661590456962585,0.239071786403656,-0.01966157555580139,-1.4901161193847656e-08,0.0,0.16273611783981323,0.6721389889717102,0.8745605527097502,2.0875518321990967,1.6678874492645264,2.2502880096435547,1.8977632522583008,2.2816903591156006,0.9963960647583008,,,,,,,
4633872000.0,222.41,6.579999923706055,12041169408.0,1794.3381603277376,241.0,0.017044413834810257,991232.0,2231.160701751709,2.0929438737660178e-14,0.0,1.9451063871383667,-0.019451087340712547,0.38265013694763184,-0.019451063126325607,-2.421438694000244e-08,0.0,0.2677086591720581,0.8329476714134216,0.7915774087174907,2.104861259460449,1.6149910688400269,2.372570037841797,1.8245060443878174,2.282735824584961,0.9966366291046143,,,,,,,
4633872000.0,242.3,8.100000381469727,12041169408.0,1792.482116672485,242.0,0.03022407554090023,995328.0,2233.445801258087,1.9753296220947902e-14,0.0,1.9455935955047607,-0.019455960020422935,0.4907640814781189,-0.019455935806035995,-2.421438694000244e-08,0.0,0.25930023193359375,0.9563026428222656,0.8067402198729983,2.537816286087036,2.0223872661590576,2.797116756439209,2.175327777862549,2.285099506378174,0.9962635040283203,,,,,,,
4633872000.0,249.22,9.1899995803833,12041169408.0,1740.1198508063765,243.0,0.02248065546154976,999424.0,2235.7996621131897,2.0350041096683924e-14,0.0,1.9173877239227295,-0.019173884764313698,0.42235296964645386,-0.0191738773137331,-7.450580596923828e-09,0.0,0.11234886199235916,0.9122975468635559,0.796035462182066,2.6539931297302246,1.8273869752883911,2.7663421630859375,2.020036458969116,2.353860855102539,0.9965224266052246,,,,,,,
4633872000.0,248.09,8.850000381469727,12041169408.0,1767.5504469734944,244.0,0.01374043244868517,1003520.0,2238.1169934272766,1.8410620250541854e-14,0.0,1.9679954051971436,-0.019679948687553406,0.3246384263038635,-0.019679954275488853,5.587935447692871e-09,0.0,0.026265323162078857,0.8054472804069519,0.7879249630459172,2.577511787414551,1.525133490562439,2.6037774085998535,1.7490105628967285,2.317331314086914,0.9964451789855957,,,,,,,
4633872000.0,250.76,9.199999809265137,12041169408.0,1758.74405308622,245.0,0.017147161066532135,1007616.0,2240.4459280967712,1.8712462135361818e-14,0.0,1.9636141061782837,-0.019636142998933792,0.48193931579589844,-0.019636141136288643,-2.7939677238464355e-09,0.0,0.11722436547279358,0.9748687744140625,0.758154661665666,3.070188045501709,1.9077682495117188,3.1874122619628906,1.982336163520813,2.328934669494629,0.9964847564697266,,,,,,,
4633872000.0,253.73,9.880000114440918,12041169408.0,1789.3320610023147,246.0,0.024465426802635193,1011712.0,2242.7350504398346,1.8788789968304798e-14,0.0,1.9536339044570923,-0.019536346197128296,0.4141032099723816,-0.0195363387465477,-7.450580596923828e-09,0.0,-0.02206416428089142,0.909902036190033,0.8259315331112421,3.7122116088867188,2.1593024730682373,3.6901473999023438,2.180894374847412,2.2891223430633545,0.9966554641723633,,,,,,,
4633872000.0,244.5,9.34000015258789,12041169408.0,1734.7804606493157,247.0,0.019740251824259758,1015808.0,2245.0961561203003,1.9904217163357885e-14,0.0,1.946250319480896,-0.01946251466870308,0.6493687629699707,-0.019462503492832184,-1.1175870895385742e-08,0.0,0.12950648367404938,1.1323773860931396,0.7954919078559182,4.522202968597412,2.365994453430176,4.65170955657959,2.504009485244751,2.3611056804656982,0.996403694152832,,,,,,,
4633872000.0,240.8,8.9399995803833,12041169408.0,1761.2795212891926,248.0,0.02347974106669426,1019904.0,2247.4217381477356,1.9829624053890882e-14,0.0,1.9773354530334473,-0.01977335289120674,0.48725277185440063,-0.01977335475385189,9.313225746154785e-10,0.0,0.006049296818673611,0.9872724413871765,0.8214535928909082,4.575042724609375,2.3731045722961426,4.581092834472656,2.336477518081665,2.3255820274353027,0.9966316223144531,,,,,,,
4633872000.0,245.06,9.359999656677246,12041169408.0,1765.26912225897,249.0,0.023635659366846085,1024000.0,2249.7420642375946,1.9957993591113166e-14,0.0,1.9665136337280273,-0.019665127620100975,0.7440332174301147,-0.019665135070681572,7.916241884231567e-09,0.0,-0.14871852099895477,1.210911750793457,0.7516041208978729,4.551616668701172,2.3209035396575928,4.402897834777832,2.4296302795410156,2.320326089859009,0.9963581562042236,,,,,,,
4633872000.0,233.58,9.119999885559082,12041169408.0,1736.7488424703226,250.0,0.014141608029603958,1028096.0,2252.1004939079285,1.9094101300076716e-14,0.0,2.0242037773132324,-0.020242024213075638,0.4297756850719452,-0.020242037251591682,1.30385160446167e-08,0.0,-0.1205168217420578,0.9193657636642456,0.7184718341165729,3.9231162071228027,1.5112473964691162,3.8025994300842285,1.732715368270874,2.3584296703338623,0.9985909461975098,,,,,,,
4633872000.0,229.43,8.90999984741211,12041169408.0,1726.218911143461,251.0,0.025762716308236122,1032192.0,2254.473309993744,2.1548735018583898e-14,0.0,1.9638980627059937,-0.01963898353278637,0.5546852350234985,-0.01963897980749607,-3.259629011154175e-09,0.0,-0.06908662617206573,1.0511267185211182,0.7384184904008422,3.9972915649414062,1.8537429571151733,3.9282050132751465,2.055187225341797,2.3728160858154297,0.9967079162597656,,,,,,,
4633872000.0,233.57,8.789999961853027,12041169408.0,1770.965894421384,252.0,0.013569825328886509,1036288.0,2256.7861721515656,1.9815746266083067e-14,0.0,2.030953884124756,-0.020309530198574066,0.39330488443374634,-0.020309537649154663,8.381903171539307e-09,0.0,-0.15300840139389038,0.873718798160553,0.7302650469126843,3.8311400413513184,1.4908921718597412,3.678131580352783,1.6822985410690308,2.3128621578216553,0.9964237213134766,,,,,,,
4633872000.0,223.79,7.630000114440918,12041169408.0,1788.3033643467886,253.0,0.014157572761178017,1040384.0,2259.0766112804413,2.1491489143876663e-14,0.0,2.0258688926696777,-0.020258687436580658,0.43728750944137573,-0.020258689299225807,1.862645149230957e-09,0.0,-0.043654851615428925,0.9342817068099976,0.7749061776603103,3.8532636165618896,1.7951319217681885,3.8096089363098145,1.9692286252975464,2.2904391288757324,0.9965786933898926,,,,,,,
4633872000.0,225.72,7.420000076293945,12041169408.0,1779.7235713957914,254.0,0.020879246294498444,1044480.0,2261.378092288971,2.0403817524439205e-14,0.0,1.9985485076904297,-0.019985491409897804,0.3025478720664978,-0.019985483959317207,-7.450580596923828e-09,0.0,0.016132261604070663,0.7778066396713257,0.7916449287418776,3.551866054534912,1.5453656911849976,3.5679984092712402,1.7039998769760132,2.301481008529663,0.9964323043823242,,,,,,,
4633872000.0,224.39,7.329999923706055,12041169408.0,1785.7897849551782,255.0,0.01745179295539856,1048576.0,2263.6717553138733,2.2646814978877217e-14,0.0,1.9805989265441895,-0.01980598084628582,0.3634873032569885,-0.019805988296866417,7.450580596923828e-09,0.0,0.031048253178596497,0.8521665930747986,0.7933273729338738,3.8095703125,1.6623263359069824,3.84061861038208,1.874489426612854,2.2936630249023438,0.996391773223877,,,,,,,
,,,,,,,,,,,,,,,,,,,,,,,,,,0.03756130859255791,0.9637429714202881,0.9275206923484802,0.03756130859255791,0.9637429714202881,0.9275206923484802,
,,,,,,,,,,,,,,,,,,,,,,,,,,0.03122873045504093,0.7599397301673889,0.7323260307312012,0.03122873045504093,0.7599397301673889,0.7323260307312012,
,,,,,,,,,,,,,,,,,,,,,,,,,,0.02967849187552929,0.694474995136261,0.6459119915962219,0.02967849187552929,0.694474995136261,0.6459119915962219,
,,,,,,,,,,,,,,,,,,,,,,,,,,0.028574321419000626,0.6059595942497253,0.5439693331718445,0.028574321419000626,0.6059595942497253,0.5439693331718445,
,,,,,,,,,,,,,,,,,,,,,,,,,,0.02312551625072956,0.48753416538238525,0.4551270008087158,0.02312551625072956,0.48753416538238525,0.4551270008087158,
,,,,,,,,,,,,,,,,,,,,,,,,,,0.022171540185809135,0.4553430676460266,0.40654170513153076,0.022171540185809135,0.4553430676460266,0.40654170513153076,
